0.05,-0.02,0.0,-0.01,0.0,0.01,-0.015,-0.005,0.005,-0.025,-0.005,-0.015,-0.035,-0.03,-0.025,-0.03,-0.03,-0.04,-0.025,-0.02,-0.035,-0.02,-0.03,-0.02,-0.035,-0.03,-0.01,-0.01,0.025,0.015,-0.01,-0.065,-0.04,-0.04,-0.055,-0.02,-0.015,0.195,0.26,-0.025,-0.305,-0.275,-0.105,-0.065,-0.04,-0.02,-0.04,-0.025,-0.025,-0.015,0.02,0.015,0.04,0.05,0.06,0.11,0.145,0.195,0.245,0.31,0.315,0.325,0.295,0.245,0.15,0.08,0.03,-0.045,-0.02,-0.04,-0.06,-0.045,-0.05,-0.07,-0.065,-0.04,-0.05,-0.025,-0.035,-0.025,-0.015,-0.05,-0.03,-0.025,-0.035,-0.035,-0.055,-0.045,-0.04,-0.06,-0.045,-0.055,-0.05,-0.045,-0.045,-0.055,-0.07,-0.065,-0.045,-0.055,-0.04,-0.01,-0.02,0.01,0.015,-0.035,-0.07,-0.065,-0.06,-0.07,-0.075,0.0,0.25,0.25,-0.105,-0.3,-0.245,-0.105,-0.06,-0.055,-0.035,-0.05,-0.05,-0.03,-0.035,-0.025,0.015,0.02,0.025,0.075,0.115,0.13,0.215,0.26,0.295,0.325,0.33,0.305,0.23,0.105,0.055,0.015,-0.03,-0.035,-0.055,-0.05,-0.05,-0.075,-0.05,-0.05,-0.065,-0.06,-0.045,-0.055,-0.055,-0.03,-0.055,-0.045,-0.065,-0.065,-0.04,-0.07,-0.055,-0.06,-0.065,-0.045,-0.08,-0.065,-0.035,-0.065,-0.065,-0.03,-0.07,-0.06,-0.05,-0.04,-0.01,-0.02,0.025,-0.01,-0.08,-0.08,-0.065,-0.075,-0.06,-0.045,0.155,0.295,0.06,-0.225,-0.32,-0.115,-0.065,-0.07,-0.03,-0.065,-0.02,-0.04,-0.025,-0.005,-0.01,0.025,0.045,0.03,0.07,0.15,0.165,0.22,0.285,0.31,0.33,0.31,0.225,0.17,0.095,0.015,-0.005,-0.02,-0.055,-0.06,-0.045,-0.055,-0.055,-0.065,-0.06,-0.04,-0.06,-0.04,-0.035,-0.03,-0.04,-0.05,-0.05,-0.06,-0.06,-0.07,-0.05,-0.05,-0.06,-0.075,-0.065,-0.07,-0.075,-0.06,-0.075,-0.065,-0.06,-0.075,-0.055,-0.06,-0.07,-0.06,-0.03,-0.01,0.01,-0.005,-0.055,-0.055,-0.08,-0.07,-0.055,-0.055,0.13,0.32,0.12,-0.23,-0.305,-0.17,-0.02,-0.055,-0.06,-0.025,-0.025,-0.02,-0.01,0.035,0.03,0.03,0.045,0.09,0.095,0.14,0.205,0.225,0.3,0.355,0.35,0.34,0.275,0.21,0.1,0.045,0.03,-0.015,-0.035,-0.04,-0.035,-0.05,-0.055,-0.045,-0.04,-0.045,-0.03,-0.035,-0.035,-0.035,-0.04,-0.015,-0.05,-0.055,-0.045,-0.04,-0.03,-0.085,-0.065,-0.055,-0.05,-0.05,-0.045,-0.045,-0.075,-0.055,-0.065,-0.055,-0.05,-0.05,-0.045,-0.05,-0.05,-0.01,0.05,-0.03,-0.065,-0.05,-0.06,-0.055,-0.065,-0.05,0.075,0.3,0.14,-0.195,-0.31,-0.185,-0.05,-0.05,-0.045,-0.035,-0.025,-0.01,-0.005,-0.02,0.005,0.02,0.04,0.05,0.085,0.135,0.165,0.22,0.275,0.33,0.35,0.325,0.3,0.22,0.1,0.055,-0.01,-0.015,-0.045,-0.055,-0.05,-0.055,-0.05,-0.075,-0.035,-0.07,-0.065,-0.05,-0.055,-0.065,-0.065,-0.045,-0.075,-0.055,-0.06,-0.08,-0.07,-0.08,-0.085,-0.07,-0.085,-0.08,-0.065,-0.085,-0.085,-0.08,-0.07,-0.08,-0.085,-0.08,-0.075,-0.055,-0.055,-0.045,-0.03,-0.015,0.01,-0.06,-0.075,-0.075,-0.07,-0.09,-0.09,0.015,0.245,0.24,-0.08,-0.31,-0.275,-0.065,-0.09,-0.07,-0.04,-0.045,-0.025,-0.03,-0.015,-0.015,0.01,0.005,0.04,0.075,0.11,0.14,0.205,0.275,0.285,0.35,0.355,0.3,0.25,0.145,0.08,0.025,-0.005,-0.035,-0.045,-0.035,-0.045,-0.035,-0.035,-0.045,-0.035,-0.055,-0.045,-0.025,-0.03,-0.015,-0.065,-0.06,-0.035,-0.06,-0.04,-0.035,-0.045,-0.035,-0.045,-0.035,-0.045,-0.06,-0.025,-0.04,-0.055,-0.025,-0.025,-0.045,-0.03,-0.035,-0.045,-0.04,-0.045,0.0,-0.01,-0.005,0.035,0.035,-0.01,-0.075,-0.05,-0.045,-0.04,-0.035,0.005,0.3,0.275,-0.08,-0.29,-0.25,-0.07,-0.025,-0.045,-0.04,-0.03,0.005,-0.02,0.0,0.005,0.015,0.025,0.05,0.09,0.11,0.155,0.175,0.245,0.31,0.315,0.345,0.31,0.245,0.165,0.08,0.015,-0.005,-0.03,-0.055,-0.035,-0.055,-0.055,-0.035,-0.075,-0.07,-0.04,-0.05,-0.055,-0.05,-0.035,-0.065,-0.045,-0.045,-0.05,-0.03,-0.04,-0.05,-0.06,-0.055,-0.085,-0.06,-0.05,-0.075,-0.06,-0.07,-0.08,-0.075,-0.055,-0.08,-0.055,-0.035,-0.045,-0.03,0.005,-0.01,-0.09,-0.07,-0.075,-0.08,-0.055,-0.07,0.155,0.255,-0.07,-0.325,-0.32,-0.14,-0.08,-0.1,-0.04,-0.065,-0.055,-0.035,-0.04,-0.035,-0.02,0.0,0.03,0.05,0.065,0.115,0.15,0.21,0.29,0.31,0.33,0.32,0.235,0.16,0.07,0.02,-0.005,-0.05,-0.045,-0.04,-0.07,-0.06,-0.045,-0.035,-0.06,-0.055,-0.035,-0.02,-0.04,-0.035,-0.025,-0.045,-0.03,-0.035,-0.04,-0.045,-0.04,-0.035,-0.035,-0.05,-0.015,-0.035,-0.06,-0.045,-0.045,-0.045,-0.045,-0.04,-0.04,-0.04,-0.045,-0.03,-0.02,-0.03,0.035,0.04,-0.015,-0.05,-0.04,-0.065,-0.05,-0.07,-0.025,0.245,0.285,-0.045,-0.28,-0.26,-0.075,-0.025,-0.08,-0.045,-0.045,-0.02,-0.025,0.0,0.005,-0.015,0.02,0.055,0.065,0.09,0.145,0.185,0.24,0.325,0.34,0.34,0.355,0.275,0.185,0.115,0.035,0.01,-0.035,-0.025,-0.01,-0.045,-0.03,-0.045,-0.055,-0.045,-0.03,-0.045,-0.045,-0.03,-0.04,-0.04,-0.04,-0.035,-0.045,-0.04,-0.045,-0.065,-0.055,-0.065,-0.065,-0.07,-0.065,-0.08,-0.095,-0.05,-0.07,-0.055,-0.065,-0.07,-0.05,-0.06,-0.035,-0.005,0.01,-0.005,-0.06,-0.09,-0.065,-0.085,-0.07,-0.085,0.07,0.335,0.145,-0.165,-0.32,-0.19,-0.045,-0.11,-0.04,-0.045,-0.05,-0.005,-0.035,-0.05,-0.01,0.015,0.04,0.04,0.065,0.12,0.165,0.21,0.235,0.315,0.345,0.34,0.295,0.21,0.145,0.025,0.0,-0.025,-0.03,-0.045,-0.065,-0.07,-0.07,-0.04,-0.065,-0.055,-0.035,-0.05,-0.065,-0.05,-0.05,-0.045,-0.05,-0.05,-0.065,-0.085,-0.055,-0.095,-0.08,-0.065,-0.065,-0.07,-0.08,-0.06,-0.055,-0.075,-0.055,-0.05,-0.035,-0.04,-0.015,0.005,-0.035,-0.08,-0.075,-0.06,-0.095,-0.075,-0.05,0.155,0.295,0.005,-0.305,-0.305,-0.14,-0.05,-0.07,-0.055,-0.05,-0.025,-0.03,-0.01,0.0,0.01,0.03,0.03,0.05,0.075,0.125,0.175,0.22,0.285,0.32,0.33,0.33,0.265,0.15,0.07,0.02,-0.02,-0.015,-0.03,-0.06,-0.035,-0.065,-0.045,-0.035,-0.055,-0.035,-0.035,-0.035,-0.025,-0.015,-0.03,-0.055,-0.035,-0.055,-0.045,-0.055,-0.065,-0.035,-0.06,-0.065,-0.055,-0.065,-0.055,-0.06,-0.07,-0.055,-0.025,-0.015,-0.01,-0.03,-0.095,-0.085,-0.08,-0.095,-0.095,-0.02,0.225,0.19,-0.145,-0.295,-0.27,-0.095,-0.065,-0.115,-0.075,-0.06,-0.075,-0.04,-0.035,-0.045,-0.02,0.0,0.04,0.035,0.085,0.13,0.195,0.26,0.285,0.34,0.35,0.305,0.235,0.155,0.07,0.03,0.005,-0.01,-0.02,-0.01,0.01,-0.02,-0.03,-0.01,0.01,-0.02,-0.015,-0.03,-0.03,-0.005,-0.005,-0.02,-0.035,-0.025,-0.015,-0.03,-0.025,-0.045,-0.05,-0.02,-0.055,-0.045,-0.015,-0.01,-0.015,-0.005,0.045,-0.005,-0.075,-0.05,-0.03,-0.06,-0.065,-0.035,0.165,0.305,0.05,-0.245,-0.295,-0.115,-0.05,-0.07,-0.04,-0.04,-0.025,-0.05,-0.01,-0.025,-0.03,0.0,0.01,0.065,0.085,0.115,0.15,0.225,0.265,0.28,0.335,0.31,0.24,0.155,0.09,0.0,-0.055,-0.05,-0.05,-0.045,-0.065,-0.05,-0.055,-0.055,-0.06,-0.08,-0.07,-0.045,-0.055,-0.07,-0.045,-0.07,-0.07,-0.075,-0.075,-0.06,-0.05,-0.055,-0.09,-0.07,-0.06,-0.08,-0.055,-0.045,-0.04,-0.055,-0.055,-0.04,-0.055,-0.035,0.0,-0.01,-0.065,-0.095,-0.08,-0.09,-0.095,-0.095,-0.03,0.24,0.21,-0.13,-0.32,-0.26,-0.09,-0.09,-0.11,-0.065,-0.06,-0.05,-0.065,-0.06,-0.03,-0.03,-0.01,0.02,0.035,0.08,0.12,0.18,0.24,0.275,0.325,0.33,0.315,0.22,0.15,0.065,-0.03,0.0,-0.055,-0.05,-0.055,-0.06,-0.035,-0.05,-0.05,-0.055,-0.055,-0.065,-0.055,-0.05,-0.05,-0.05,-0.055,-0.05,-0.065,-0.07,-0.08,-0.045,-0.045,-0.045,-0.025,-0.035,-0.025,-0.045,-0.045,-0.04,-0.03,-0.03,-0.01,0.005,0.005,0.015,0.055,-0.005,-0.04,-0.01,-0.05,-0.04,-0.065,-0.005,0.145,0.315,0.14,-0.24,-0.325,-0.16,-0.045,-0.025,-0.035,-0.04,-0.005,-0.005,0.01,0.01,0.02,0.03,0.07,0.045,0.095,0.16,0.175,0.235,0.285,0.325,0.325,0.36,0.28,0.155,0.115,0.045,-0.01,-0.025,-0.035,-0.065,-0.065,-0.055,-0.055,-0.055,-0.06,-0.045,-0.035,-0.05,-0.07,-0.05,-0.06,-0.045,-0.055,-0.07,-0.05,-0.07,-0.065,-0.06,-0.045,-0.07,-0.045,-0.035,-0.08,-0.07,-0.065,-0.045,-0.05,-0.02,-0.035,0.0,-0.025,-0.09,-0.06,-0.075,-0.075,-0.09,-0.07,0.145,0.28,-0.015,-0.325,-0.35,-0.19,-0.07,-0.07,-0.05,-0.05,-0.05,-0.035,-0.04,-0.02,0.0,-0.015,0.035,0.025,0.095,0.145,0.13,0.23,0.255,0.305,0.335,0.315,0.24,0.155,0.095,0.02,-0.03,-0.04,-0.04,-0.06,-0.05,-0.06,-0.075,-0.06,-0.05,-0.03,-0.04,-0.055,-0.055,-0.035,-0.035,-0.045,-0.03,-0.045,-0.045,-0.045,-0.045,-0.05,-0.06,-0.06,-0.065,-0.04,-0.045,-0.035,-0.03,-0.03,-0.03,-0.03,-0.005,0.015,0.02,-0.045,-0.06,-0.03,-0.065,-0.045,-0.045,0.065,0.32,0.2,-0.155,-0.31,-0.205,-0.04,-0.06,-0.02,-0.015,-0.05,-0.005,-0.02,0.0,0.015,0.03,0.045,0.045,0.11,0.13,0.17,0.225,0.275,0.33,0.355,0.365,0.31,0.245,0.14,0.075,-0.005,-0.015,-0.015,-0.05,-0.02,-0.04,-0.055,-0.04,-0.04,-0.045,-0.035,-0.055,-0.025,-0.04,-0.055,-0.035,-0.06,-0.04,-0.06,-0.055,-0.05,-0.085,-0.055,-0.045,-0.065,-0.08,-0.065,-0.08,-0.07,-0.05,-0.065,-0.08,-0.04,-0.05,-0.025,-0.005,-0.02,-0.065,-0.105,-0.09,-0.08,-0.085,-0.11,-0.01,0.27,0.23,-0.15,-0.34,-0.265,-0.11,-0.09,-0.095,-0.065,-0.075,-0.075,-0.055,-0.025,-0.04,-0.03,-0.005,0.015,0.065,0.06,0.12,0.155,0.21,0.285,0.305,0.325,0.28,0.21,0.125,0.045,-0.01,-0.045,-0.06,-0.075,-0.075,-0.065,-0.065,-0.065,-0.065,-0.08,-0.065,-0.055,-0.07,-0.045,-0.055,-0.055,-0.06,-0.08,-0.075,-0.065,-0.055,-0.06,-0.055,-0.07,-0.065,-0.06,-0.06,-0.04,-0.07,-0.07,-0.04,-0.03,-0.035,-0.02,-0.005,0.01,0.005,-0.055,-0.065,-0.055,-0.05,-0.06,-0.02,0.175,0.305,0.065,-0.275,-0.31,-0.15,-0.015,-0.02,-0.025,-0.015,0.005,0.025,0.01,0.015,0.03,0.06,0.06,0.08,0.12,0.13,0.19,0.24,0.31,0.315,0.345,0.335,0.25,0.18,0.1,0.06,0.01,-0.02,-0.03,-0.035,-0.045,-0.045,-0.04,-0.03,-0.045,-0.04,-0.02,-0.025,-0.035,-0.03,-0.025,-0.035,-0.035,-0.04,-0.04,-0.035,-0.04,-0.055,-0.065,-0.04,-0.05,-0.055,-0.005,-0.035,-0.025,0.01,-0.015,-0.06,-0.07,-0.05,-0.07,-0.085,-0.06,0.1,0.285,0.07,-0.245,-0.325,-0.195,-0.04,-0.08,-0.07,-0.045,-0.06,-0.025,-0.04,-0.025,0.01,0.02,0.025,0.06,0.095,0.12,0.19,0.19,0.25,0.305,0.315,0.305,0.24,0.155,0.07,0.035,-0.01,-0.045,-0.065,-0.075,-0.06,-0.06,-0.075,-0.065,-0.065,-0.075,-0.07,-0.08,-0.05,-0.06,-0.055,-0.08,-0.075,-0.055,-0.08,-0.055,-0.08,-0.07,-0.07,-0.07,-0.05,-0.085,-0.07,-0.055,-0.075,-0.045,-0.005,0.0,-0.085,-0.1,-0.085,-0.08,
0.02,0.005,-0.015,-0.03,0.0,-0.01,-0.055,-0.04,-0.005,-0.01,-0.04,0.005,0.03,0.015,0.01,0.0,-0.03,-0.055,-0.045,-0.055,-0.045,-0.025,-0.01,-0.005,0.1,0.19,-0.135,-0.21,-0.1,-0.035,-0.015,-0.055,0.025,0.01,-0.035,0.0,0.025,0.025,0.005,0.07,0.05,0.04,0.13,0.16,0.16,0.215,0.235,0.185,0.13,0.075,0.03,0.005,-0.045,-0.07,-0.04,-0.085,-0.095,-0.065,-0.06,-0.04,-0.01,0.015,-0.01,0.0,-0.01,-0.025,-0.005,-0.01,-0.01,-0.005,0.0,-0.015,-0.035,0.01,0.0,0.02,0.025,0.015,0.03,-0.005,-0.03,-0.01,-0.03,-0.06,-0.06,-0.075,-0.025,-0.035,0.03,0.17,-0.05,-0.295,-0.16,-0.045,-0.06,-0.04,-0.015,-0.05,-0.015,-0.03,-0.035,0.0,-0.005,0.025,0.05,0.045,0.075,0.16,0.165,0.18,0.215,0.21,0.145,0.07,0.005,-0.025,-0.045,-0.095,-0.095,-0.115,-0.1,-0.075,-0.1,-0.095,-0.06,-0.085,-0.045,-0.02,-0.06,-0.02,-0.035,-0.055,-0.005,-0.03,-0.06,-0.045,-0.04,-0.06,-0.06,-0.025,-0.03,-0.06,-0.02,0.055,0.04,0.0,-0.025,-0.01,-0.005,-0.01,-0.025,-0.06,-0.045,-0.005,0.105,0.17,-0.12,-0.275,-0.13,-0.03,-0.055,-0.055,-0.05,-0.065,-0.01,-0.03,-0.06,-0.025,-0.02,0.05,0.07,0.1,0.17,0.215,0.275,0.235,0.29,0.26,0.22,0.155,0.1,0.08,0.04,0.015,-0.055,0.0,0.025,-0.015,0.01,0.0,-0.005,0.0,0.035,0.03,0.0,0.02,-0.015,-0.02,0.035,0.005,-0.01,0.005,0.02,0.005,-0.02,0.06,0.045,0.02,-0.01,-0.03,-0.01,-0.065,-0.045,-0.01,-0.085,-0.01,0.01,0.04,0.23,-0.16,-0.28,-0.035,-0.07,-0.04,-0.065,-0.04,-0.025,-0.03,-0.035,-0.055,0.015,-0.01,-0.025,0.02,0.055,0.105,0.13,0.17,0.19,0.23,0.19,0.135,0.11,0.02,-0.03,-0.045,-0.085,-0.09,-0.055,-0.055,-0.075,-0.07,-0.035,-0.05,-0.05,-0.06,-0.07,-0.05,-0.065,-0.05,-0.035,-0.06,-0.06,-0.1,-0.08,-0.04,-0.07,-0.045,-0.02,-0.03,0.0,-0.015,-0.075,-0.055,-0.065,-0.075,-0.045,-0.07,-0.09,-0.035,0.0,0.145,0.11,-0.275,-0.255,-0.085,-0.09,-0.08,-0.05,-0.045,-0.03,-0.02,0.025,0.01,0.03,0.04,0.04,0.09,0.105,0.135,0.21,0.18,0.2,0.26,0.18,0.13,0.095,0.025,-0.06,-0.05,-0.05,-0.105,-0.05,-0.02,-0.02,-0.02,-0.025,-0.035,-0.03,-0.015,-0.015,0.02,-0.02,-0.005,0.01,0.0,0.01,0.005,0.01,0.035,0.01,-0.005,0.02,0.08,0.02,-0.045,0.005,-0.01,-0.03,-0.035,0.0,0.0,0.01,0.055,0.175,0.075,-0.215,-0.135,-0.02,-0.005,0.005,-0.005,0.035,-0.005,0.01,0.01,0.015,0.07,0.035,0.055,0.11,0.125,0.155,0.22,0.205,0.25,0.255,0.195,0.15,0.06,0.045,0.01,-0.06,-0.045,-0.045,-0.085,-0.11,-0.075,-0.055,-0.1,-0.05,-0.07,-0.075,-0.065,-0.095,-0.07,-0.1,-0.12,-0.085,-0.095,-0.11,-0.075,-0.085,-0.07,-0.05,-0.08,-0.12,-0.13,-0.12,-0.12,-0.11,-0.115,-0.085,-0.075,-0.035,0.175,-0.07,-0.335,-0.17,-0.07,-0.06,-0.055,-0.06,-0.045,-0.045,-0.015,0.01,0.025,0.005,0.04,0.035,0.055,0.13,0.145,0.195,0.265,0.26,0.26,0.22,0.16,0.1,0.07,0.005,-0.04,0.03,-0.005,-0.01,0.01,0.005,-0.005,0.005,-0.005,0.0,0.005,-0.02,-0.015,-0.04,-0.04,-0.065,-0.07,-0.01,-0.02,-0.05,-0.015,0.0,0.01,-0.02,-0.09,-0.095,-0.065,-0.08,-0.06,-0.04,0.01,0.175,0.025,-0.305,-0.21,-0.05,-0.05,-0.06,-0.06,-0.03,-0.005,-0.02,0.0,-0.005,0.01,0.01,0.03,0.065,0.095,0.19,0.195,0.2,0.255,0.25,0.205,0.16,0.12,0.05,0.02,-0.015,-0.025,-0.015,-0.03,-0.035,-0.025,-0.015,-0.025,0.015,0.015,-0.01,0.005,-0.015,-0.04,-0.03,-0.05,-0.005,-0.03,-0.015,0.02,0.015,0.035,-0.065,-0.065,-0.075,-0.045,-0.03,-0.06,-0.04,-0.045,-0.005,0.06,0.165,-0.12,-0.3,-0.125,-0.055,-0.025,-0.04,-0.015,-0.015,-0.05,-0.005,0.005,0.005,0.025,0.025,0.045,0.05,0.115,0.14,0.15,0.21,0.22,0.21,0.11,0.095,0.035,-0.005,-0.015,-0.08,-0.05,-0.09,-0.065,-0.055,-0.06,-0.05,-0.03,-0.04,-0.035,-0.03,-0.065,-0.06,-0.055,-0.03,-0.06,-0.015,-0.015,-0.02,-0.01,0.015,-0.05,-0.095,-0.03,-0.055,-0.095,-0.05,-0.035,-0.065,-0.07,0.1,0.195,-0.175,-0.295,-0.065,-0.045,-0.055,-0.09,-0.025,0.0,-0.05,-0.035,0.015,0.005,0.005,0.025,0.04,0.07,0.1,0.17,0.18,0.19,0.24,0.18,0.11,0.095,0.04,-0.03,-0.045,-0.04,-0.075,-0.045,-0.045,-0.04,0.0,-0.035,-0.055,-0.055,-0.03,-0.035,-0.035,-0.04,-0.03,-0.015,-0.03,0.0,-0.015,-0.015,0.02,0.005,-0.02,-0.025,-0.065,-0.055,-0.065,-0.055,-0.065,-0.03,-0.005,0.01,0.17,-0.04,-0.29,-0.15,-0.025,-0.04,-0.04,-0.06,-0.03,-0.025,-0.025,0.005,0.0,-0.03,0.015,0.035,0.07,0.095,0.14,0.19,0.19,0.24,0.205,0.165,0.085,0.05,0.03,-0.01,-0.035,-0.065,-0.015,-0.055,-0.035,-0.015,-0.01,0.005,-0.015,-0.01,-0.02,-0.01,-0.01,0.0,-0.015,-0.005,0.01,-0.01,0.025,0.045,0.06,-0.005,-0.04,-0.005,-0.02,-0.06,-0.04,0.0,-0.025,-0.07,0.035,0.205,-0.105,-0.285,-0.12,-0.035,-0.005,-0.065,-0.04,0.01,-0.025,-0.055,0.005,0.025,-0.01,0.01,0.055,0.06,0.09,0.145,0.2,0.23,0.235,0.215,0.15,0.115,0.03,0.005,-0.045,-0.085,-0.045,-0.035,-0.075,-0.07,-0.05,-0.035,-0.045,-0.04,-0.055,-0.03,-0.025,-0.035,0.0,-0.045,-0.01,0.005,-0.005,-0.005,-0.04,-0.065,-0.045,-0.06,-0.085,-0.045,-0.08,-0.05,-0.03,0.095,0.105,-0.265,-0.255,-0.09,-0.07,-0.04,-0.03,-0.025,-0.05,-0.015,-0.005,0.01,-0.03,0.02,0.055,0.03,0.09,0.14,0.18,0.2,0.225,0.22,0.185,0.135,0.06,0.005,-0.02,-0.06,-0.055,-0.045,-0.08,-0.05,-0.015,-0.05,-0.04,-0.055,-0.055,0.01,-0.03,-0.06,-0.035,0.0,-0.035,-0.045,0.0,0.01,-0.02,-0.015,-0.025,-0.075,-0.1,-0.065,-0.04,-0.06,-0.095,0.005,-0.005,0.135,0.065,-0.3,-0.205,-0.09,-0.035,-0.03,-0.045,-0.01,-0.04,-0.04,0.0,-0.01,0.02,0.015,0.04,0.09,0.1,0.115,0.19,0.235,0.245,0.24,0.16,0.15,0.06,-0.005,-0.02,-0.04,-0.03,-0.06,-0.06,-0.04,-0.035,-0.005,-0.04,-0.015,0.0,-0.03,-0.015,-0.025,-0.025,-0.02,-0.025,-0.005,-0.015,-0.01,0.01,0.005,0.01,-0.045,-0.06,-0.04,-0.055,-0.07,-0.04,-0.045,-0.035,-0.02,0.165,0.06,-0.295,-0.185,-0.075,-0.045,-0.05,-0.04,-0.045,-0.035,-0.01,0.0,-0.01,-0.015,0.045,0.03,0.065,0.09,0.145,0.165,0.22,0.205,0.2,0.21,0.105,0.075,0.035,0.01,-0.035,-0.04,-0.04,-0.06,-0.025,-0.025,-0.03,-0.005,-0.005,-0.02,-0.02,-0.005,-0.03,-0.035,-0.045,-0.03,0.0,-0.03,-0.025,-0.01,-0.005,-0.01,0.025,0.01,-0.005,-0.045,-0.075,-0.015,-0.07,-0.07,-0.05,-0.04,-0.01,0.085,0.115,-0.26,-0.295,-0.08,-0.055,0.0,-0.05,-0.025,-0.035,-0.035,0.005,-0.01,0.01,0.025,0.05,0.04,0.095,0.125,0.175,0.235,0.25,0.23,0.19,0.16,0.095,0.06,0.015,-0.02,-0.045,-0.04,-0.045,-0.01,-0.005,-0.025,0.0,-0.005,-0.04,-0.03,-0.015,-0.055,-0.04,-0.05,-0.04,-0.045,-0.03,-0.045,-0.055,0.03,-0.005,-0.025,0.005,-0.05,-0.075,-0.055,-0.055,-0.05,-0.07,-0.075,-0.06,-0.02,0.105,0.095,-0.21,-0.31,-0.105,-0.075,-0.075,-0.045,-0.04,-0.03,-0.04,-0.025,-0.035,0.005,0.025,0.01,0.065,0.065,0.115,0.15,0.16,0.225,0.215,0.2,0.15,0.07,0.035,0.0,-0.025,-0.045,-0.04,-0.045,-0.04,-0.05,-0.035,-0.015,-0.01,0.005,-0.06,-0.03,-0.01,-0.055,-0.03,-0.06,-0.055,-0.035,0.005,-0.015,-0.05,0.015,0.01,-0.02,-0.03,-0.055,-0.055,-0.055,-0.035,-0.07,-0.07,-0.06,-0.045,0.09,0.195,-0.125,-0.315,-0.07,-0.045,-0.035,-0.04,-0.015,0.005,-0.015,-0.025,0.015,0.01,0.015,0.075,0.075,0.075,0.105,0.2,0.19,0.22,0.22,0.22,0.215,0.1,0.04,0.03,-0.025,-0.02,-0.035,-0.045,-0.01,-0.08,-0.02,0.025,-0.02,-0.015,0.0,0.005,-0.02,-0.035,-0.02,-0.005,-0.025,-0.03,-0.03,0.0,-0.015,0.0,0.02,0.02,0.025,-0.04,-0.045,-0.045,-0.025,-0.06,-0.07,-0.035,-0.035,-0.03,0.065,0.17,-0.17,-0.285,-0.065,-0.08,-0.05,-0.035,-0.015,-0.045,-0.06,-0.015,-0.01,0.01,0.0,0.025,0.065,0.065,0.09,0.145,0.17,0.215,0.25,0.215,0.14,0.06,0.05,0.0,-0.065,-0.015,-0.05,-0.08,-0.035,-0.055,-0.045,-0.045,0.005,0.0,-0.03,-0.01,-0.035,-0.04,-0.035,-0.035,-0.045,-0.07,-0.05,-0.05,-0.015,-0.025,-0.015,0.015,-0.015,-0.025,-0.095,-0.045,-0.065,-0.09,-0.095,-0.075,-0.04,-0.025,0.0,0.075,0.17,-0.21,-0.27,-0.06,-0.025,-0.045,-0.03,-0.015,-0.005,-0.01,0.04,0.025,0.015,0.065,0.04,0.045,0.09,0.14,0.18,0.2,0.225,0.255,0.225,0.165,0.085,0.015,-0.03,-0.03,-0.025,-0.055,-0.04,-0.06,-0.03,-0.015,-0.06,-0.02,-0.035,-0.025,-0.045,-0.01,-0.02,-0.05,-0.035,-0.06,-0.04,-0.045,-0.035,-0.005,-0.005,-0.01,-0.005,0.005,0.02,-0.035,-0.05,-0.025,-0.055,-0.065,-0.055,-0.065,-0.04,-0.03,0.06,0.195,-0.175,-0.32,-0.115,-0.09,-0.04,-0.03,-0.03,-0.035,-0.035,-0.04,-0.025,-0.015,0.0,0.04,0.04,0.05,0.1,0.145,0.2,0.215,0.22,0.21,0.185,0.095,0.06,0.03,-0.05,-0.035,-0.03,-0.055,-0.055,-0.04,-0.02,-0.035,-0.005,-0.015,-0.02,-0.01,-0.03,-0.025,-0.035,-0.05,-0.05,-0.025,-0.04,-0.05,-0.005,-0.005,-0.025,-0.015,0.015,0.01,-0.07,-0.1,-0.035,-0.045,-0.05,-0.04,-0.08,-0.015,-0.05,0.085,0.16,-0.255,-0.33,-0.125,-0.03,-0.055,-0.025,-0.005,-0.005,0.0,-0.005,-0.01,0.005,0.05,0.05,0.07,0.11,0.145,0.16,0.205,0.25,0.245,0.25,0.19,0.125,0.09,0.055,0.01,-0.04,-0.01,-0.035,-0.005,-0.025,-0.03,-0.015,-0.01,-0.02,0.0,-0.025,-0.045,-0.035,-0.06,-0.035,-0.035,-0.04,-0.04,0.03,-0.01,-0.045,0.0,-0.025,-0.055,-0.075,-0.04,-0.05,-0.065,-0.07,-0.09,0.045,0.165,0.085,-0.27,-0.275,-0.05,-0.035,-0.03,-0.015,-0.07,-0.065,0.025,0.01,-0.01,-0.015,0.0,0.045,0.095,0.04,0.065,0.175,0.185,0.21,0.21,0.155,0.115,0.06,0.025,-0.045,-0.04,-0.04,-0.06,-0.04,-0.06,-0.04,-0.05,-0.025,-0.05,-0.025,-0.02,-0.07,-0.04,-0.03,-0.055,-0.08,-0.005,-0.025,-0.05,-0.045,0.0,0.0,-0.03,-0.01,-0.1,-0.065,-0.065,-0.075,-0.045,-0.055,-0.02,-0.05,-0.005,0.19,-0.05,-0.28,-0.145,-0.075,-0.035,-0.01,-0.04,-0.045,-0.015,-0.01,-0.03,0.0,0.035,0.0,0.035,0.07,0.1,0.14,0.205,0.23,0.25,0.23,0.185,0.14,0.08,0.01,0.01,0.005,-0.025,-0.025,-0.03,0.0,-0.025,-0.025,-0.01,-0.01,0.005,0.035,0.0,-0.01,-0.005,0.005,0.01,-0.025,0.01,0.015,0.0,0.005,0.03,0.04,0.045,-0.01,-0.05,-0.01,-0.025,-0.055,-0.045,-0.045,-0.045,-0.035,0.065,0.185,-0.09,-0.325,-0.105,-0.07,-0.02,-0.025,-0.055,-0.05,
0.01,-0.005,0.005,-0.01,0.0,-0.015,0.005,0.0,-0.02,-0.025,-0.015,-0.025,-0.04,-0.02,-0.02,-0.03,-0.03,-0.03,-0.02,-0.025,-0.025,-0.025,0.01,-0.01,0.01,0.04,-0.045,-0.045,-0.065,-0.07,-0.04,-0.065,0.0,0.24,0.27,-0.065,-0.33,-0.285,-0.115,-0.055,-0.04,-0.045,-0.035,-0.01,-0.01,-0.025,-0.015,0.03,0.045,0.035,0.105,0.115,0.12,0.215,0.275,0.295,0.34,0.375,0.36,0.29,0.205,0.105,0.035,0.015,-0.04,-0.035,-0.045,-0.045,-0.06,-0.05,-0.04,-0.055,-0.05,-0.03,-0.05,-0.045,-0.06,-0.05,-0.04,-0.06,-0.07,-0.075,-0.055,-0.065,-0.075,-0.05,-0.085,-0.085,-0.07,-0.07,-0.065,-0.08,-0.05,-0.06,-0.05,-0.03,-0.02,0.0,-0.015,-0.085,-0.07,-0.09,-0.1,-0.065,-0.09,0.05,0.28,0.175,-0.185,-0.34,-0.21,-0.07,-0.08,-0.075,-0.05,-0.04,-0.04,-0.02,-0.02,-0.005,0.02,0.02,0.035,0.065,0.11,0.17,0.195,0.27,0.335,0.32,0.345,0.325,0.26,0.17,0.065,0.015,-0.03,-0.035,-0.075,-0.05,-0.05,-0.05,-0.05,-0.045,-0.05,-0.09,-0.04,-0.06,-0.06,-0.05,-0.04,-0.045,-0.085,-0.055,-0.06,-0.065,-0.08,-0.065,-0.05,-0.07,-0.08,-0.065,-0.065,-0.08,-0.055,-0.05,-0.065,-0.05,-0.04,-0.005,0.02,-0.01,-0.085,-0.065,-0.085,-0.095,-0.08,-0.085,0.02,0.29,0.225,-0.14,-0.34,-0.245,-0.07,-0.065,-0.05,-0.055,-0.045,-0.015,-0.04,-0.015,0.02,0.0,0.01,0.055,0.095,0.115,0.14,0.21,0.235,0.295,0.355,0.34,0.33,0.27,0.175,0.1,0.03,-0.01,-0.035,-0.05,-0.045,-0.035,-0.04,-0.05,-0.025,-0.03,-0.06,-0.045,-0.04,-0.06,-0.03,-0.05,-0.05,-0.04,-0.06,-0.05,-0.075,-0.06,-0.075,-0.08,-0.065,-0.055,-0.055,-0.075,-0.06,-0.045,-0.04,-0.02,0.025,-0.02,-0.08,-0.065,-0.07,-0.075,-0.085,-0.065,-0.02,0.215,0.29,-0.075,-0.33,-0.315,-0.105,-0.055,-0.075,-0.045,-0.03,-0.035,-0.03,-0.005,-0.015,0.005,0.05,0.055,0.075,0.095,0.15,0.175,0.24,0.32,0.315,0.36,0.325,0.27,0.19,0.115,0.045,-0.025,-0.025,-0.07,-0.05,-0.07,-0.055,-0.045,-0.08,-0.045,-0.07,-0.05,-0.05,-0.05,-0.035,-0.045,-0.04,-0.045,-0.06,-0.055,-0.055,-0.075,-0.065,-0.055,-0.06,-0.08,-0.075,-0.065,-0.075,-0.065,-0.07,-0.065,-0.045,-0.055,-0.03,-0.01,-0.01,-0.03,-0.065,-0.07,-0.075,-0.075,-0.075,-0.06,0.125,0.295,0.045,-0.24,-0.305,-0.145,-0.04,-0.095,-0.05,-0.055,-0.02,-0.005,-0.015,0.0,-0.005,0.015,0.05,0.075,0.075,0.13,0.175,0.2,0.27,0.32,0.35,0.355,0.305,0.235,0.145,0.065,0.01,-0.035,-0.015,-0.045,-0.05,-0.055,-0.055,-0.025,-0.045,-0.04,-0.04,-0.03,-0.055,-0.025,-0.04,-0.06,-0.04,-0.06,-0.05,-0.05,-0.075,-0.045,-0.065,-0.065,-0.045,-0.065,-0.075,-0.075,-0.065,-0.055,-0.075,-0.06,-0.02,-0.055,-0.02,-0.015,0.0,-0.065,-0.1,-0.055,-0.07,-0.07,-0.09,-0.005,0.23,0.27,-0.055,-0.325,-0.27,-0.09,-0.055,-0.065,-0.045,-0.05,-0.035,-0.01,-0.02,-0.005,0.015,0.01,0.045,0.08,0.095,0.13,0.19,0.245,0.305,0.325,0.355,0.37,0.26,0.185,0.12,0.035,-0.005,-0.025,-0.055,-0.06,-0.06,-0.04,-0.05,-0.06,-0.05,-0.06,-0.045,-0.065,-0.06,-0.035,-0.05,-0.05,-0.065,-0.05,-0.07,-0.08,-0.06,-0.08,-0.05,-0.08,-0.07,-0.065,-0.08,-0.06,-0.07,-0.07,-0.08,-0.07,-0.07,-0.045,-0.065,-0.095,-0.07,-0.075,-0.085,-0.065,-0.015,0.215,0.27,-0.055,-0.315,-0.29,-0.105,-0.075,-0.065,-0.05,-0.03,-0.01,-0.03,0.01,0.0,0.01,0.045,0.03,0.085,0.095,0.14,0.19,0.25,0.29,0.315,0.335,0.32,0.27,0.18,0.12,0.04,-0.015,-0.01,-0.03,-0.06,-0.045,-0.08,-0.04,-0.04,-0.065,-0.04,-0.045,-0.03,-0.065,-0.045,-0.045,-0.04,-0.05,-0.055,-0.06,-0.06,-0.055,-0.065,-0.055,-0.075,-0.06,-0.065,-0.055,-0.055,-0.085,-0.045,-0.02,-0.03,-0.025,0.025,-0.01,-0.065,-0.08,-0.08,-0.065,-0.085,-0.05,0.115,0.29,0.085,-0.245,-0.315,-0.18,-0.07,-0.055,-0.03,-0.045,-0.03,-0.025,-0.005,0.005,0.02,0.025,0.03,0.06,0.09,0.14,0.15,0.21,0.28,0.305,0.345,0.365,0.345,0.225,0.13,0.065,0.015,-0.015,-0.04,-0.04,-0.055,-0.035,-0.04,-0.04,-0.05,-0.065,-0.03,-0.05,-0.045,-0.06,-0.05,-0.03,-0.05,-0.045,-0.055,-0.035,-0.05,-0.075,-0.06,-0.075,-0.05,-0.07,-0.055,-0.065,-0.06,-0.06,-0.075,-0.055,-0.075,-0.07,-0.05,-0.04,-0.04,-0.005,0.005,-0.025,-0.07,-0.07,-0.065,-0.09,-0.09,-0.06,0.1,0.31,0.13,-0.21,-0.3,-0.185,-0.075,-0.06,-0.045,-0.05,-0.05,-0.02,-0.035,-0.015,0.025,0.005,0.015,0.07,0.08,0.12,0.17,0.21,0.265,0.3,0.335,0.375,0.345,0.245,0.155,0.085,0.01,-0.015,-0.04,-0.035,-0.065,-0.05,-0.055,-0.07,-0.045,-0.045,-0.05,-0.05,-0.045,-0.07,-0.04,-0.065,-0.055,-0.045,-0.06,-0.055,-0.065,-0.055,-0.065,-0.07,-0.05,-0.065,-0.07,-0.08,-0.04,-0.06,-0.09,-0.06,-0.07,-0.055,-0.045,-0.015,0.015,-0.03,-0.07,-0.075,-0.09,-0.065,-0.075,-0.08,0.01,0.275,0.225,-0.145,-0.32,-0.23,-0.09,-0.06,-0.055,-0.055,-0.055,-0.04,-0.025,-0.02,-0.005,0.015,0.03,0.055,0.08,0.09,0.15,0.205,0.26,0.3,0.345,0.36,0.345,0.265,0.185,0.09,0.04,0.0,-0.045,-0.04,-0.06,-0.045,-0.045,-0.065,-0.04,-0.04,-0.06,-0.05,-0.055,-0.055,-0.04,-0.03,-0.06,-0.04,-0.04,-0.065,-0.055,-0.07,-0.055,-0.045,-0.07,-0.075,-0.065,-0.055,-0.065,-0.035,-0.05,-0.035,-0.025,-0.025,0.01,-0.045,-0.07,-0.075,-0.08,-0.065,-0.085,-0.055,0.18,0.295,-0.005,-0.315,-0.32,-0.14,-0.075,-0.06,-0.03,-0.03,-0.015,-0.04,-0.03,-0.005,0.01,0.02,0.05,0.07,0.105,0.14,0.17,0.23,0.29,0.32,0.35,0.355,0.3,0.205,0.115,0.05,-0.01,-0.045,-0.025,-0.06,-0.075,-0.06,-0.07,-0.06,-0.05,-0.05,-0.065,-0.04,-0.05,-0.055,-0.06,-0.055,-0.055,-0.09,-0.065,-0.065,-0.09,-0.075,-0.065,-0.07,-0.075,-0.075,-0.08,-0.075,-0.045,-0.06,-0.05,-0.02,0.0,-0.005,-0.08,-0.08,-0.075,-0.095,-0.07,-0.065,-0.04,0.2,0.29,-0.01,-0.285,-0.29,-0.1,-0.055,-0.075,-0.035,-0.03,-0.04,-0.025,-0.015,0.005,0.025,0.015,0.045,0.045,0.1,0.135,0.175,0.25,0.295,0.32,0.355,0.35,0.305,0.21,0.115,0.035,0.0,-0.005,-0.05,-0.055,-0.05,-0.04,-0.055,-0.045,-0.055,-0.045,-0.055,-0.075,-0.055,-0.065,-0.04,-0.045,-0.06,-0.065,-0.055,-0.065,-0.08,-0.06,-0.065,-0.08,-0.055,-0.08,-0.07,-0.035,-0.08,-0.07,-0.065,-0.065,-0.05,-0.015,0.015,-0.015,-0.07,-0.09,-0.085,-0.075,-0.085,-0.075,-0.015,0.23,0.285,-0.055,-0.305,-0.28,-0.095,-0.06,-0.07,-0.045,-0.05,-0.045,-0.03,-0.01,-0.015,-0.01,0.015,0.045,0.05,0.115,0.15,0.18,0.26,0.285,0.35,0.355,0.325,0.3,0.19,0.1,0.025,-0.01,-0.02,-0.05,-0.055,-0.065,-0.06,-0.05,-0.065,-0.04,-0.045,-0.055,-0.07,-0.055,-0.03,-0.055,-0.05,-0.045,-0.06,-0.07,-0.04,-0.08,-0.08,-0.06,-0.075,-0.065,-0.085,-0.065,-0.05,-0.09,-0.08,-0.075,-0.08,-0.065,-0.06,-0.055,-0.035,-0.035,0.015,-0.025,-0.095,-0.06,-0.07,-0.085,-0.07,-0.08,0.035,0.3,0.22,-0.15,-0.33,-0.22,-0.08,-0.055,-0.055,-0.045,-0.03,-0.015,0.0,0.0,0.005,0.035,0.025,0.04,0.095,0.13,0.155,0.2,0.265,0.305,0.335,0.35,0.325,0.28,0.175,0.085,0.03,-0.02,-0.04,-0.025,-0.055,-0.055,-0.04,-0.045,-0.065,-0.05,-0.05,-0.05,-0.035,-0.045,-0.03,-0.025,-0.035,-0.045,-0.05,-0.055,-0.065,-0.06,-0.045,-0.05,-0.065,-0.06,-0.04,-0.06,-0.065,-0.065,-0.06,-0.055,-0.035,0.015,0.005,-0.03,-0.085,-0.05,-0.055,-0.095,-0.06,-0.045,0.15,0.3,0.015,-0.29,-0.305,-0.14,-0.065,-0.07,-0.05,-0.045,-0.015,-0.025,-0.02,0.01,0.005,0.005,0.03,0.06,0.085,0.12,0.17,0.225,0.27,0.305,0.34,0.33,0.305,0.225,0.13,0.02,-0.015,-0.015,-0.06,-0.06,-0.035,-0.07,-0.06,-0.05,-0.06,-0.05,-0.065,-0.055,-0.04,-0.035,-0.05,-0.065,-0.07,-0.05,-0.065,-0.06,-0.06,-0.08,-0.065,-0.07,-0.065,-0.055,-0.065,-0.06,-0.075,-0.065,-0.06,-0.085,-0.05,-0.06,-0.045,-0.025,-0.02,0.005,-0.025,-0.085,-0.09,-0.075,-0.07,-0.08,-0.065,0.185,0.3,0.025,-0.25,-0.295,-0.135,-0.07,-0.065,-0.05,-0.04,-0.04,-0.025,-0.015,-0.01,0.04,0.02,0.02,0.055,0.085,0.125,0.19,0.235,0.27,0.335,0.345,0.34,0.32,0.235,0.145,0.065,0.005,-0.025,-0.04,-0.045,-0.07,-0.055,-0.045,-0.06,-0.06,-0.04,-0.035,-0.04,-0.05,-0.06,-0.035,-0.055,-0.065,-0.045,-0.045,-0.075,-0.06,-0.035,-0.06,-0.06,-0.05,-0.055,-0.06,-0.055,-0.065,-0.07,-0.055,-0.065,-0.08,-0.055,-0.065,-0.07,-0.03,-0.025,0.015,0.005,-0.025,-0.07,-0.085,-0.07,-0.075,-0.065,-0.06,0.155,0.31,0.065,-0.24,-0.3,-0.15,-0.05,-0.075,-0.02,-0.045,-0.05,0.01,0.0,-0.015,0.02,0.025,0.035,0.08,0.1,0.125,0.185,0.21,0.285,0.33,0.34,0.355,0.325,0.26,0.14,0.065,0.005,-0.02,-0.035,-0.045,-0.045,-0.055,-0.035,-0.05,-0.07,-0.05,-0.03,-0.05,-0.08,-0.04,-0.03,-0.07,-0.055,-0.04,-0.065,-0.07,-0.06,-0.075,-0.08,-0.075,-0.075,-0.05,-0.065,-0.065,-0.055,-0.09,-0.06,-0.065,-0.075,-0.055,-0.075,-0.055,-0.025,-0.045,-0.01,0.015,-0.055,-0.085,-0.07,-0.075,-0.09,-0.085,-0.035,0.215,0.305,-0.025,-0.31,-0.28,-0.105,-0.075,-0.04,-0.065,-0.035,-0.03,-0.03,0.005,-0.01,0.025,0.04,0.05,0.07,0.095,0.125,0.2,0.24,0.285,0.35,0.315,0.34,0.3,0.195,0.125,0.045,0.005,-0.015,-0.04,-0.04,-0.06,-0.05,-0.045,-0.05,-0.035,-0.065,-0.065,-0.03,-0.055,-0.035,-0.02,-0.065,-0.035,-0.05,-0.04,-0.05,-0.06,-0.05,-0.055,-0.055,-0.05,-0.065,-0.075,-0.04,-0.065,-0.065,-0.045,-0.035,-0.025,-0.01,0.015,-0.03,-0.075,-0.085,-0.07,-0.07,-0.085,-0.065,0.11,0.305,0.07,-0.25,-0.32,-0.195,-0.055,-0.065,-0.055,-0.05,-0.04,-0.015,-0.03,-0.015,0.005,0.015,0.025,0.035,0.09,0.115,0.135,0.2,0.27,0.315,0.355,0.35,0.315,0.245,0.14,0.07,0.0,-0.01,-0.035,-0.065,-0.045,-0.055,-0.07,-0.055,-0.04,-0.045,-0.055,-0.03,-0.045,-0.04,-0.055,-0.07,-0.05,-0.06,-0.07,-0.07,-0.05,-0.06,-0.065,-0.06,-0.065,-0.075,-0.07,-0.065,-0.07,-0.07,-0.075,-0.065,-0.04,-0.025,-0.025,0.025,-0.025,-0.095,-0.075,-0.08,-0.095,-0.075,-0.055,0.025,0.305,0.215,-0.15,-0.33,-0.225,-0.075,-0.065,-0.06,-0.06,-0.025,-0.025,-0.015,-0.025,0.015,0.02,0.01,0.055,0.055,0.125,0.15,0.195,0.27,0.3,0.33,0.37,0.355,0.265,0.17,0.09,0.025,-0.01,-0.035,-0.07,-0.045,-0.04,-0.06,-0.075,-0.06,-0.05,-0.07,-0.025,-0.045,-0.05,-0.055,-0.045,-0.055,-0.045,-0.055,-0.05,-0.04,-0.07,-0.085,-0.065,-0.05,-0.065,-0.05,-0.055,-0.08,-0.06,-0.075,-0.08,-0.07,-0.055,-0.035,-0.06,-0.05,-0.02,0.02,-0.01,-0.065,-0.035,-0.07,-0.1,-0.075,
0.005,0.015,0.0,-0.005,-0.02,0.005,-0.01,0.01,-0.015,0.01,0.025,-0.02,-0.03,-0.015,-0.05,-0.07,-0.035,-0.075,-0.05,-0.015,0.09,0.155,-0.175,-0.285,-0.115,-0.065,-0.065,-0.07,-0.035,-0.025,-0.035,-0.035,-0.03,0.015,0.03,-0.02,-0.02,0.04,0.045,0.095,0.14,0.16,0.205,0.17,0.16,0.095,0.055,0.05,0.0,-0.04,-0.035,-0.06,-0.035,-0.07,-0.05,-0.03,-0.055,-0.03,-0.01,-0.025,-0.025,-0.065,-0.04,-0.02,-0.04,-0.01,-0.045,0.0,-0.015,0.005,-0.025,-0.07,-0.055,-0.065,-0.045,-0.06,-0.04,-0.06,-0.015,0.01,0.135,0.145,-0.235,-0.225,-0.045,-0.03,0.0,-0.01,0.005,0.005,0.0,0.03,0.02,0.005,0.03,0.06,0.05,0.095,0.145,0.16,0.165,0.205,0.205,0.205,0.19,0.16,0.085,0.035,0.03,-0.035,-0.005,-0.03,-0.035,-0.055,-0.045,0.015,-0.015,-0.005,-0.04,0.015,-0.005,-0.07,0.0,-0.07,-0.055,-0.015,-0.03,-0.03,0.005,0.01,0.04,-0.005,-0.045,0.01,-0.03,-0.055,-0.02,-0.02,-0.06,-0.025,-0.025,0.06,0.175,-0.16,-0.325,-0.095,-0.045,-0.055,-0.05,-0.06,-0.025,-0.025,-0.03,0.025,-0.02,0.0,0.01,-0.02,0.05,0.085,0.085,0.145,0.17,0.18,0.195,0.17,0.12,0.075,0.02,0.005,-0.02,-0.06,-0.06,-0.065,-0.065,-0.055,-0.06,-0.06,0.01,-0.07,-0.035,-0.015,-0.05,-0.04,-0.075,-0.025,-0.05,-0.035,-0.045,-0.04,-0.02,-0.015,-0.025,-0.01,0.0,0.025,-0.025,-0.07,-0.03,-0.035,-0.04,-0.055,-0.085,-0.035,-0.055,0.0,0.21,-0.075,-0.32,-0.14,-0.04,-0.005,-0.05,-0.07,-0.005,-0.025,-0.025,-0.05,-0.015,0.025,-0.015,0.03,0.03,0.05,0.1,0.11,0.145,0.21,0.205,0.175,0.185,0.1,0.07,0.035,-0.02,-0.01,-0.035,-0.03,-0.07,-0.02,-0.035,-0.04,0.0,-0.02,0.01,-0.03,-0.01,-0.015,-0.015,-0.02,-0.015,-0.005,-0.04,-0.02,-0.005,0.005,0.0,0.025,0.02,0.035,0.0,-0.05,-0.04,-0.045,-0.015,-0.01,-0.05,-0.03,0.015,0.065,0.18,0.05,-0.265,-0.185,-0.045,-0.02,-0.025,-0.025,-0.02,-0.04,0.01,-0.015,-0.025,-0.02,-0.005,0.0,-0.02,0.025,0.06,0.12,0.15,0.17,0.18,0.205,0.215,0.09,0.05,0.04,0.0,-0.01,-0.02,-0.02,-0.025,-0.035,-0.015,-0.025,-0.02,-0.03,-0.025,-0.025,-0.015,-0.01,-0.02,-0.005,-0.01,-0.06,-0.04,-0.01,-0.02,-0.01,0.005,0.055,0.025,0.005,-0.005,-0.055,-0.06,-0.065,-0.04,-0.035,-0.04,-0.035,-0.04,0.015,0.18,-0.005,-0.285,-0.165,-0.085,-0.045,-0.04,-0.03,-0.025,-0.04,-0.015,-0.02,-0.02,-0.005,-0.005,0.015,0.035,0.045,0.06,0.135,0.18,0.175,0.195,0.18,0.16,0.085,0.06,-0.005,-0.045,-0.02,-0.05,-0.06,-0.055,-0.045,-0.025,-0.03,-0.035,-0.04,-0.01,-0.01,-0.03,0.005,-0.01,-0.015,-0.065,-0.07,-0.035,-0.065,-0.04,-0.03,-0.02,-0.035,-0.06,-0.015,-0.02,-0.035,0.02,0.015,-0.02,-0.05,-0.05,-0.05,-0.045,-0.02,-0.025,-0.015,-0.02,0.145,0.125,-0.215,-0.205,-0.075,-0.055,-0.02,-0.025,0.035,-0.005,0.015,0.015,0.01,0.01,0.02,0.055,0.075,0.085,0.07,0.155,0.185,0.185,0.2,0.23,0.215,0.13,0.12,0.085,0.025,0.005,-0.025,-0.05,-0.04,-0.055,-0.055,-0.025,-0.02,-0.03,-0.035,-0.015,-0.05,-0.005,-0.025,-0.07,-0.03,-0.045,-0.015,-0.035,-0.055,-0.035,-0.02,-0.05,-0.035,-0.04,-0.03,-0.015,-0.015,0.035,0.015,-0.06,-0.045,-0.045,-0.07,-0.05,-0.03,-0.065,-0.03,0.01,0.14,0.16,-0.23,-0.28,-0.07,-0.035,-0.035,-0.025,0.005,-0.005,0.015,-0.005,-0.01,-0.005,-0.005,0.01,0.035,0.065,0.065,0.115,0.135,0.145,0.21,0.21,0.175,0.15,0.07,0.035,0.005,-0.045,-0.05,-0.055,-0.05,-0.085,-0.07,-0.055,-0.035,-0.04,-0.055,-0.035,-0.035,-0.04,-0.05,-0.06,-0.085,-0.035,-0.03,-0.075,-0.05,-0.03,-0.05,-0.085,-0.07,-0.04,-0.05,-0.01,-0.01,-0.005,0.015,0.005,-0.04,-0.09,-0.065,-0.04,-0.05,-0.055,-0.035,-0.02,0.0,0.19,0.02,-0.35,-0.165,-0.045,-0.05,0.0,-0.005,0.0,-0.025,0.0,0.005,-0.015,0.01,0.01,0.055,0.08,0.06,0.12,0.14,0.155,0.205,0.235,0.225,0.21,0.16,0.085,0.04,0.03,-0.025,-0.025,-0.045,-0.025,-0.035,-0.035,-0.015,-0.015,0.01,-0.015,0.02,-0.025,-0.04,-0.02,-0.06,-0.02,-0.035,-0.045,-0.02,0.0,0.015,0.005,0.0,0.045,0.03,-0.04,-0.025,0.0,-0.045,-0.035,-0.03,-0.03,-0.045,-0.03,0.045,0.22,0.005,-0.315,-0.135,-0.025,-0.03,-0.015,-0.035,0.02,-0.015,-0.025,0.05,0.025,0.02,0.035,0.03,0.08,0.07,0.09,0.16,0.165,0.215,0.245,0.22,0.175,0.135,0.095,0.015,-0.02,-0.025,-0.06,-0.04,-0.035,-0.04,-0.035,-0.02,-0.02,-0.05,-0.05,-0.02,-0.04,-0.05,-0.01,-0.035,-0.065,-0.065,-0.04,-0.075,-0.04,0.0,-0.045,-0.01,-0.02,0.015,0.02,-0.04,-0.075,-0.08,-0.045,-0.05,-0.035,-0.065,-0.065,-0.04,0.05,0.18,-0.085,-0.3,-0.12,-0.035,-0.06,-0.045,-0.055,-0.04,-0.025,-0.045,-0.03,-0.03,-0.02,0.005,0.025,0.005,0.025,0.09,0.085,0.165,0.205,0.175,0.19,0.17,0.065,0.03,-0.035,-0.08,-0.015,-0.045,-0.055,-0.04,-0.02,-0.045,-0.045,-0.02,-0.055,-0.02,-0.025,-0.035,-0.02,-0.015,-0.035,-0.035,-0.045,-0.07,0.005,-0.03,-0.02,0.03,0.01,0.04,-0.055,-0.06,-0.04,-0.07,-0.07,-0.06,-0.04,-0.06,-0.015,0.03,0.16,-0.06,-0.33,-0.175,-0.045,-0.025,-0.04,-0.055,-0.04,-0.03,-0.025,-0.01,0.0,-0.015,-0.065,-0.005,0.01,0.035,0.085,0.1,0.165,0.175,0.195,0.175,0.14,0.11,0.04,-0.005,-0.03,-0.03,-0.015,-0.025,-0.045,0.0,0.015,-0.03,0.01,-0.005,0.015,0.02,-0.04,0.005,-0.005,-0.005,0.01,-0.02,-0.01,-0.005,0.02,0.025,0.02,0.035,0.05,0.025,-0.055,-0.04,0.0,-0.03,-0.04,-0.015,-0.05,-0.02,0.04,0.19,0.125,-0.275,-0.185,-0.035,-0.035,-0.02,-0.015,0.01,0.0,-0.01,0.015,0.03,0.015,0.005,0.04,0.06,0.065,0.13,0.13,0.185,0.225,0.23,0.225,0.22,0.175,0.085,0.075,0.03,-0.025,-0.025,-0.005,0.0,-0.015,-0.03,0.015,-0.01,-0.01,0.02,0.01,0.005,-0.025,-0.025,0.0,-0.02,0.0,0.035,0.015,0.01,0.02,-0.005,-0.045,-0.055,-0.105,-0.085,-0.09,-0.08,-0.065,-0.065,-0.07,-0.025,0.14,-0.01,-0.32,-0.21,-0.11,-0.06,-0.085,-0.065,-0.02,-0.04,-0.035,-0.035,-0.065,-0.06,-0.04,-0.005,0.015,0.0,0.075,0.11,0.135,0.18,0.16,0.17,0.14,0.095,0.08,0.005,-0.06,-0.05,-0.02,-0.065,-0.06,-0.045,-0.06,-0.035,-0.03,-0.045,-0.05,-0.045,-0.065,-0.04,-0.045,-0.065,-0.06,-0.03,-0.035,-0.04,-0.02,-0.02,0.015,-0.04,-0.065,-0.06,-0.085,-0.06,-0.025,-0.075,-0.08,0.01,-0.03,0.115,0.15,-0.225,-0.255,-0.07,-0.015,-0.035,-0.035,-0.015,-0.04,0.005,0.01,-0.015,-0.015,-0.005,0.03,0.03,0.03,0.09,0.1,0.16,0.195,0.2,0.195,0.17,0.15,0.07,0.02,-0.01,-0.005,0.0,-0.035,-0.045,-0.05,-0.04,-0.03,-0.015,-0.005,-0.03,0.005,-0.02,-0.03,0.01,-0.02,-0.04,-0.035,0.005,0.015,0.015,0.005,0.02,0.08,-0.025,-0.035,-0.025,-0.045,-0.02,-0.035,-0.04,-0.015,-0.01,0.045,0.195,-0.035,-0.315,-0.145,-0.03,-0.05,-0.015,0.01,-0.02,-0.015,0.02,0.015,-0.02,0.035,0.025,0.06,0.1,0.075,0.14,0.16,0.18,0.23,0.215,0.23,0.18,0.07,0.06,0.03,-0.045,-0.065,-0.065,-0.065,-0.04,-0.065,-0.055,-0.035,-0.03,-0.025,-0.05,-0.025,-0.035,-0.055,-0.01,-0.05,-0.04,-0.05,-0.035,-0.01,-0.04,-0.015,0.03,0.045,0.005,-0.07,-0.055,-0.05,-0.04,-0.04,-0.07,-0.035,-0.04,-0.02,0.14,0.11,-0.255,-0.22,-0.07,-0.05,-0.03,-0.04,-0.03,-0.04,0.005,-0.005,-0.015,0.01,0.01,0.02,0.045,0.035,0.08,0.105,0.165,0.205,0.2,0.2,0.195,0.13,0.045,0.04,-0.03,-0.02,-0.055,-0.085,-0.035,-0.045,-0.06,-0.065,-0.025,-0.045,-0.03,-0.03,-0.04,-0.05,-0.05,-0.035,-0.065,-0.03,-0.01,-0.04,-0.05,-0.02,0.0,0.02,-0.035,-0.095,-0.1,-0.11,-0.08,-0.085,-0.095,-0.075,-0.01,0.055,0.165,-0.08,-0.28,-0.13,-0.05,-0.04,-0.04,-0.03,-0.035,-0.005,0.035,0.015,0.02,0.01,-0.01,0.03,0.02,0.08,0.11,0.14,0.195,0.18,0.235,0.21,0.19,0.13,0.05,0.045,-0.005,0.005,-0.055,-0.035,-0.02,-0.06,-0.01,-0.01,-0.015,-0.025,0.005,0.01,-0.02,0.02,-0.025,-0.05,0.015,0.005,0.0,0.02,0.015,0.025,0.02,-0.02,-0.065,-0.055,-0.035,-0.045,-0.055,-0.08,-0.035,0.045,0.175,0.03,-0.285,-0.2,-0.065,-0.07,-0.04,-0.045,-0.02,-0.04,-0.02,-0.015,-0.025,-0.015,-0.01,0.025,0.015,0.055,0.085,0.1,0.14,0.15,0.2,0.155,0.14,0.13,0.055,0.01,-0.02,-0.025,-0.07,-0.06,-0.07,-0.06,-0.035,-0.06,0.0,-0.005,-0.05,-0.03,-0.01,0.005,-0.03,-0.02,-0.085,-0.045,0.03,-0.01,0.0,-0.005,0.02,0.035,-0.03,-0.03,-0.025,-0.055,-0.035,-0.03,-0.045,-0.04,-0.05,0.01,0.21,0.015,-0.28,-0.13,-0.03,-0.03,-0.045,-0.045,0.0,-0.015,-0.035,-0.025,0.015,0.0,0.015,0.035,0.02,0.04,0.105,0.12,0.135,0.2,0.22,0.21,0.165,0.14,0.1,0.02,-0.01,-0.01,-0.05,-0.055,-0.02,-0.055,-0.055,-0.05,-0.01,-0.035,-0.045,-0.02,-0.005,-0.035,-0.06,-0.005,-0.025,-0.02,-0.025,0.025,-0.005,-0.005,0.035,0.035,-0.015,-0.085,-0.025,-0.055,-0.055,-0.065,-0.035,-0.015,-0.045,0.01,0.15,0.11,-0.27,-0.245,-0.07,-0.05,-0.015,-0.045,-0.035,-0.015,-0.03,-0.01,-0.01,-0.01,0.025,0.0,0.025,0.04,0.095,0.13,0.125,0.195,0.21,0.21,0.195,0.095,0.075,0.06,-0.02,-0.04,-0.015,-0.03,-0.075,-0.06,-0.035,-0.055,-0.025,-0.005,-0.03,-0.02,-0.025,-0.02,-0.07,-0.055,-0.07,-0.08,-0.05,-0.06,-0.02,-0.06,-0.02,-0.02,-0.02,0.015,-0.015,-0.015,-0.045,-0.07,-0.06,-0.045,-0.045,-0.06,-0.05,0.0,0.065,0.175,-0.105,-0.295,-0.11,-0.05,-0.035,-0.05,-0.025,-0.015,-0.02,0.025,-0.005,-0.005,0.045,0.02,-0.02,0.02,0.005,0.05,0.1,0.125,0.175,0.175,0.17,0.1,0.095,0.02,-0.05,-0.05,-0.065,-0.085,-0.13,-0.105,-0.095,-0.09,-0.06,-0.04,-0.05,-0.04,-0.025,0.035,0.015,0.01,0.045,0.01,0.04,0.06,0.065,0.075,0.07,0.07,0.095,0.015,-0.01,-0.005,-0.015,0.01,0.015,-0.025,0.005,0.015,0.145,0.24,-0.115,-0.16,-0.03,0.01,0.015,-0.03,-0.005,0.02,0.01,-0.01,0.045,0.01,-0.02,0.055,0.025,0.01,0.08,0.085,0.105,0.17,0.195,0.165,0.17,0.115,0.045,0.035,-0.005,-0.055,-0.075,-0.05,-0.09,-0.055,-0.04,-0.065,-0.09,-0.065,-0.04,-0.075,-0.06,-0.065,-0.055,-0.06,-0.07,-0.06,-0.065,-0.065,-0.04,-0.055,-0.025,-0.04,-0.025,-0.045,-0.095,-0.065,-0.085,-0.065,-0.075,-0.07,-0.045,-0.075,0.1,0.205,-0.175,-0.235,-0.04,-0.075,-0.025,-0.01,-0.025,0.0,-0.04,0.005,0.01,0.02,0.015,-0.01,0.03,0.06,0.05,0.12,0.18,0.155,0.21,0.21,0.16,0.175,0.105,
-0.06,0.005,0.01,-0.05,-0.035,0.0,-0.015,-0.04,-0.035,-0.01,-0.045,-0.04,-0.015,-0.075,-0.065,-0.04,-0.04,-0.075,-0.055,-0.02,-0.06,-0.06,0.0,-0.03,0.0,0.01,-0.05,-0.055,-0.055,-0.05,-0.07,-0.065,-0.095,-0.145,0.205,0.8,0.69,0.09,-0.115,-0.1,-0.09,-0.05,-0.06,-0.035,-0.035,-0.07,-0.06,0.0,0.015,0.0,0.065,0.09,0.115,0.175,0.245,0.26,0.245,0.19,0.13,0.08,0.03,-0.05,-0.025,-0.015,-0.08,-0.06,-0.08,-0.07,-0.065,-0.06,-0.04,-0.055,-0.035,-0.06,-0.04,-0.03,-0.055,-0.02,-0.085,-0.07,-0.04,-0.035,-0.065,-0.065,-0.055,-0.095,-0.08,-0.075,-0.06,-0.04,-0.095,-0.09,-0.065,-0.04,-0.025,-0.075,-0.04,-0.035,-0.025,-0.03,-0.085,-0.075,-0.08,-0.065,-0.105,-0.16,-0.055,0.515,0.91,0.365,-0.14,-0.17,-0.125,-0.095,-0.07,-0.055,-0.085,-0.11,-0.04,-0.025,-0.025,-0.02,0.0,0.045,0.095,0.11,0.195,0.255,0.26,0.195,0.195,0.11,0.005,0.025,-0.08,-0.045,-0.06,-0.075,-0.045,-0.055,-0.05,-0.045,-0.06,-0.065,-0.015,-0.065,-0.025,-0.06,-0.06,-0.025,-0.075,-0.075,-0.045,0.0,-0.05,-0.045,-0.07,-0.07,-0.05,-0.07,-0.04,-0.065,-0.07,-0.035,-0.025,-0.045,0.01,-0.025,-0.03,-0.01,-0.01,-0.05,-0.11,-0.025,-0.085,-0.115,-0.16,0.205,0.875,0.655,0.07,-0.205,-0.165,-0.095,-0.045,-0.1,-0.08,-0.045,-0.075,-0.075,-0.045,-0.02,-0.015,0.035,0.07,0.15,0.155,0.165,0.24,0.215,0.195,0.145,0.03,0.03,-0.025,-0.12,-0.04,-0.04,-0.085,-0.055,-0.095,-0.05,-0.065,-0.065,-0.055,-0.06,-0.025,-0.075,-0.035,-0.03,-0.095,-0.07,-0.065,-0.06,-0.05,-0.075,-0.085,-0.075,-0.065,-0.01,-0.07,-0.1,-0.03,-0.04,-0.045,0.015,-0.03,-0.085,-0.055,-0.105,-0.115,-0.025,-0.1,-0.175,0.345,0.805,0.345,-0.1,-0.14,-0.13,-0.12,-0.075,-0.055,-0.07,-0.035,-0.005,-0.095,-0.025,0.01,0.01,0.075,0.07,0.11,0.195,0.205,0.235,0.25,0.155,0.115,0.055,-0.01,-0.045,-0.055,-0.07,-0.01,-0.01,-0.105,-0.03,-0.05,-0.03,-0.045,-0.03,-0.02,-0.08,-0.03,-0.02,-0.05,-0.035,-0.03,-0.04,-0.03,-0.055,-0.035,-0.035,-0.025,0.015,-0.05,-0.005,0.01,-0.06,-0.06,-0.09,-0.075,-0.06,-0.13,-0.17,-0.045,0.395,0.685,0.295,-0.145,-0.16,-0.175,-0.08,-0.09,-0.09,-0.045,-0.12,-0.05,-0.03,-0.08,-0.03,-0.005,0.0,0.075,0.11,0.16,0.23,0.185,0.165,0.12,0.05,0.015,-0.06,-0.045,-0.03,-0.09,-0.065,-0.055,-0.09,-0.065,-0.08,-0.045,-0.045,-0.095,-0.055,-0.04,-0.05,-0.065,-0.065,-0.07,-0.05,-0.07,-0.055,-0.03,-0.05,-0.035,-0.035,0.025,-0.01,-0.02,-0.045,-0.055,-0.065,-0.085,-0.045,-0.08,-0.125,-0.135,0.295,0.815,0.53,0.005,-0.12,-0.1,-0.045,-0.075,-0.065,-0.045,-0.075,-0.05,-0.025,-0.035,-0.01,0.02,0.045,0.055,0.115,0.165,0.185,0.22,0.2,0.17,0.1,0.03,-0.02,0.0,-0.06,-0.095,-0.065,-0.055,-0.04,-0.09,-0.03,-0.06,-0.1,0.0,-0.07,-0.09,-0.05,-0.01,-0.065,-0.06,-0.025,-0.07,-0.035,-0.075,-0.075,-0.05,-0.065,-0.04,-0.075,-0.005,-0.02,-0.035,-0.015,-0.07,-0.08,-0.095,-0.045,-0.08,-0.135,-0.15,0.305,0.795,0.57,0.065,-0.12,-0.11,-0.11,-0.04,-0.035,-0.12,-0.05,-0.02,-0.115,-0.02,0.02,0.01,0.01,0.06,0.12,0.17,0.2,0.235,0.23,0.155,0.135,0.045,-0.005,-0.045,-0.04,-0.05,-0.09,-0.06,-0.06,-0.07,-0.07,-0.055,-0.075,-0.06,-0.03,-0.065,-0.07,-0.05,-0.065,-0.045,-0.065,-0.045,-0.02,-0.07,-0.09,-0.065,-0.07,-0.08,-0.055,-0.045,-0.025,-0.095,-0.11,-0.05,-0.075,-0.095,-0.06,-0.03,-0.025,-0.045,-0.045,-0.02,-0.025,-0.045,-0.065,-0.08,-0.065,-0.08,-0.12,-0.12,0.4,0.895,0.485,-0.04,-0.085,-0.125,-0.105,-0.055,-0.05,-0.09,-0.05,-0.01,-0.075,-0.055,-0.005,0.025,0.0,0.09,0.15,0.18,0.195,0.225,0.255,0.19,0.12,0.095,0.015,-0.04,-0.03,-0.045,-0.05,-0.055,-0.04,-0.03,-0.04,-0.045,-0.04,-0.05,-0.04,-0.035,-0.07,-0.015,-0.03,-0.055,-0.025,-0.04,-0.04,-0.06,-0.04,-0.045,-0.06,-0.065,-0.04,-0.075,-0.055,-0.025,-0.065,-0.025,-0.06,-0.08,-0.045,-0.085,-0.06,-0.055,-0.055,-0.04,-0.055,-0.04,-0.03,-0.07,-0.015,0.02,-0.01,-0.02,-0.02,-0.03,-0.08,-0.075,-0.04,-0.075,-0.155,-0.05,0.555,0.875,0.39,-0.085,-0.15,-0.09,-0.075,-0.065,-0.06,-0.06,-0.09,-0.03,-0.015,-0.035,-0.035,0.035,0.06,0.045,0.135,0.225,0.235,0.21,0.285,0.205,0.09,0.075,0.035,-0.02,-0.045,-0.035,-0.07,-0.045,-0.045,-0.05,0.0,-0.025,-0.045,-0.01,-0.025,-0.03,-0.03,0.0,-0.035,-0.055,-0.045,-0.06,-0.045,-0.04,-0.045,-0.065,-0.065,-0.065,-0.045,-0.015,-0.1,-0.07,-0.05,-0.095,-0.05,-0.06,-0.05,-0.035,-0.065,-0.025,0.0,-0.035,-0.035,-0.025,-0.095,-0.08,-0.08,-0.095,-0.065,-0.175,0.135,0.72,0.585,0.025,-0.185,-0.13,-0.105,-0.07,-0.08,-0.07,-0.065,-0.095,-0.025,-0.025,-0.04,0.01,0.035,0.025,0.15,0.14,0.165,0.26,0.21,0.19,0.125,0.045,0.01,-0.015,-0.045,-0.045,-0.1,-0.065,-0.06,-0.055,-0.055,-0.025,-0.08,-0.115,-0.04,-0.07,-0.05,-0.05,-0.075,-0.065,-0.06,-0.06,-0.065,-0.05,-0.065,-0.115,-0.065,-0.045,-0.04,-0.055,-0.05,-0.035,-0.015,0.03,-0.08,-0.095,-0.05,-0.09,-0.055,-0.1,-0.135,0.06,0.545,0.605,0.05,-0.16,-0.125,-0.08,-0.12,-0.01,-0.035,-0.09,-0.05,-0.015,-0.015,-0.02,0.025,-0.01,0.08,0.105,0.135,0.2,0.19,0.21,0.185,0.115,0.075,0.02,-0.045,-0.035,-0.045,-0.085,-0.015,-0.055,-0.025,0.025,-0.09,-0.075,-0.03,-0.045,-0.055,-0.04,-0.02,-0.035,-0.045,-0.045,-0.05,-0.025,-0.015,-0.03,0.055,0.04,-0.04,-0.04,-0.075,-0.02,-0.095,-0.055,-0.05,-0.14,-0.095,0.16,0.64,0.425,-0.055,-0.17,-0.165,-0.05,-0.085,-0.1,-0.07,-0.065,-0.045,-0.03,-0.015,-0.06,-0.02,0.075,0.02,0.125,0.15,0.12,0.185,0.18,0.13,0.05,0.05,0.01,-0.05,-0.065,-0.06,-0.045,-0.055,-0.07,-0.085,-0.045,-0.065,-0.085,0.03,-0.085,-0.11,0.005,-0.075,-0.02,-0.065,-0.035,-0.02,-0.09,-0.02,-0.01,0.005,-0.045,0.005,-0.055,-0.065,-0.065,-0.105,-0.075,-0.07,-0.135,-0.075,0.305,0.665,0.405,-0.06,-0.07,-0.12,-0.095,-0.03,-0.1,-0.04,-0.045,-0.06,-0.05,0.005,0.005,-0.03,0.06,0.06,0.105,0.195,0.155,0.215,0.195,0.095,0.09,0.02,-0.04,-0.045,-0.035,-0.065,-0.055,-0.04,-0.115,-0.03,-0.03,-0.08,-0.06,-0.08,-0.045,-0.055,-0.045,-0.02,-0.035,-0.07,-0.095,-0.02,-0.05,-0.075,-0.055,-0.07,-0.085,-0.03,-0.085,-0.04,-0.02,-0.08,0.0,-0.07,0.02,0.01,-0.02,-0.045,-0.065,-0.06,-0.13,-0.055,-0.085,-0.12,0.265,0.695,0.525,0.01,-0.12,-0.055,-0.05,-0.1,-0.07,-0.055,-0.02,-0.065,-0.055,0.005,0.01,0.01,-0.005,0.075,0.13,0.175,0.15,0.23,0.225,0.18,0.125,0.05,0.005,-0.02,-0.055,-0.035,-0.015,-0.07,-0.04,-0.03,-0.035,-0.055,-0.025,-0.045,-0.03,-0.02,-0.025,-0.01,-0.04,-0.06,-0.01,-0.005,-0.065,-0.065,-0.045,-0.015,-0.03,-0.06,-0.065,-0.045,-0.045,-0.075,-0.04,-0.005,-0.055,-0.075,-0.015,-0.065,-0.07,-0.045,-0.05,-0.03,-0.045,-0.06,-0.06,-0.065,-0.005,-0.06,-0.06,-0.04,-0.05,-0.015,-0.04,0.045,-0.005,-0.03,-0.025,-0.05,-0.055,-0.06,-0.04,-0.055,-0.15,-0.02,0.565,0.795,0.325,-0.01,-0.06,-0.11,-0.04,-0.035,-0.07,-0.04,-0.07,-0.04,-0.02,-0.025,-0.015,-0.01,0.065,0.105,0.125,0.165,0.2,0.23,0.245,0.17,0.155,0.08,-0.015,-0.005,-0.055,-0.035,-0.05,-0.065,-0.04,0.0,-0.035,-0.04,-0.035,-0.055,-0.015,-0.03,-0.07,-0.03,0.015,-0.055,-0.04,-0.055,-0.075,-0.045,-0.04,-0.04,-0.06,-0.04,-0.08,-0.07,-0.055,-0.065,-0.065,-0.04,-0.035,-0.05,-0.05,-0.055,-0.065,-0.08,-0.05,-0.065,-0.08,-0.055,-0.055,-0.075,-0.085,-0.02,-0.045,-0.03,0.01,-0.045,-0.025,-0.02,-0.055,-0.065,-0.09,-0.07,-0.075,-0.12,-0.115,0.355,0.86,0.515,0.01,-0.105,-0.12,-0.06,-0.08,-0.04,-0.055,-0.07,-0.03,-0.04,-0.01,-0.025,0.015,0.035,0.07,0.15,0.175,0.26,0.24,0.225,0.22,0.14,0.065,0.045,0.025,-0.05,-0.055,-0.05,-0.05,-0.02,-0.05,-0.04,-0.03,-0.07,-0.035,-0.015,-0.065,-0.05,-0.025,-0.045,-0.04,-0.045,0.0,-0.045,-0.035,-0.03,-0.055,-0.03,-0.075,-0.045,-0.04,-0.03,-0.105,-0.035,-0.045,-0.07,-0.02,-0.1,-0.07,-0.025,-0.065,-0.07,-0.04,-0.05,-0.075,-0.035,-0.005,-0.055,-0.025,0.02,-0.005,-0.075,-0.03,-0.03,-0.11,-0.055,-0.095,-0.125,-0.01,0.555,0.805,0.215,-0.12,-0.16,-0.055,-0.07,-0.105,-0.02,-0.065,-0.02,-0.07,-0.025,0.035,-0.035,0.005,0.04,0.105,0.15,0.2,0.22,0.22,0.27,0.145,0.085,0.08,0.035,-0.025,-0.055,-0.045,-0.095,-0.06,-0.015,-0.035,-0.115,-0.03,-0.045,-0.075,-0.005,-0.065,-0.03,-0.04,-0.065,-0.035,-0.045,-0.045,-0.055,-0.07,-0.035,-0.065,-0.075,-0.065,-0.045,-0.08,-0.055,-0.02,-0.11,-0.04,-0.025,-0.025,0.01,-0.015,-0.05,-0.05,-0.055,-0.075,-0.08,-0.075,-0.065,-0.175,0.14,0.65,0.53,-0.02,-0.155,-0.12,-0.135,-0.065,-0.065,-0.035,-0.07,-0.025,-0.035,-0.045,0.02,0.005,0.04,0.06,0.085,0.16,0.2,0.25,0.22,0.205,0.105,0.065,0.005,-0.02,-0.04,-0.055,-0.065,-0.085,-0.07,-0.03,-0.07,-0.08,-0.03,-0.075,-0.025,-0.055,-0.04,-0.05,-0.065,-0.06,-0.035,-0.045,-0.075,-0.04,-0.05,-0.035,-0.035,-0.04,0.015,0.01,-0.025,-0.035,-0.08,-0.055,-0.07,-0.08,-0.075,-0.11,-0.105,0.285,0.69,0.315,-0.105,-0.15,-0.135,-0.065,-0.05,-0.055,-0.055,-0.01,-0.09,-0.025,0.015,-0.01,0.0,0.055,0.09,0.09,0.175,0.18,0.255,0.2,0.12,0.11,0.025,0.0,-0.03,-0.045,-0.045,-0.035,-0.075,-0.07,-0.065,-0.045,-0.06,-0.03,-0.02,-0.085,-0.075,-0.045,-0.065,-0.03,-0.05,-0.05,-0.045,-0.085,-0.025,-0.03,0.0,0.0,-0.025,-0.015,-0.015,-0.08,-0.07,-0.045,-0.12,-0.045,-0.09,-0.135,0.185,0.71,0.515,0.005,-0.09,-0.115,-0.04,-0.08,-0.06,-0.05,-0.085,-0.06,-0.045,-0.015,-0.035,0.025,-0.015,0.005,0.11,0.19,0.185,0.19,0.165,0.16,0.085,0.04,0.005,-0.05,-0.07,-0.06,-0.065,-0.095,-0.055,-0.095,-0.05,-0.045,-0.1,-0.08,-0.06,-0.08,-0.07,-0.03,-0.06,-0.06,-0.07,-0.08,-0.035,-0.075,-0.08,-0.03,-0.05,-0.04,-0.03,0.015,-0.025,-0.07,-0.01,-0.06,-0.09,-0.045,-0.065,-0.085,-0.145,-0.15,0.24,0.765,0.555,0.015,-0.12,-0.09,-0.115,-0.1,-0.045,-0.07,-0.08,-0.06,-0.07,-0.035,-0.04,-0.03,0.055,0.03,0.115,0.125,0.175,0.205,0.22,0.22,0.085,0.06,0.005,-0.065,-0.075,-0.035,-0.065,-0.075,-0.055,-0.05,-0.08,-0.105,-0.045,-0.07,-0.055,-0.04,-0.045,-0.055,-0.055,-0.035,-0.08,-0.07,-0.055,-0.065,-0.05,-0.04,-0.065,-0.08,-0.055,-0.045,-0.045,-0.04,-0.025,0.0,-0.02,0.005,-0.03,-0.085,-0.04,-0.055,-0.065,-0.085,-0.14,-0.12,0.385,0.88,0.46,
0.05,-0.02,0.0,-0.01,0.0,0.01,-0.015,-0.005,0.005,-0.025,-0.005,-0.015,-0.035,-0.03,-0.025,-0.03,-0.03,-0.04,-0.025,-0.02,-0.035,-0.02,-0.03,-0.02,-0.035,-0.03,-0.01,-0.01,0.025,0.015,-0.01,-0.065,-0.04,-0.04,-0.055,-0.02,-0.015,0.195,0.26,-0.025,-0.305,-0.275,-0.105,-0.065,-0.04,-0.02,-0.04,-0.025,-0.025,-0.015,0.02,0.015,0.04,0.05,0.06,0.11,0.145,0.195,0.245,0.31,0.315,0.325,0.295,0.245,0.15,0.08,0.03,-0.045,-0.02,-0.04,-0.06,-0.045,-0.05,-0.07,-0.065,-0.04,-0.05,-0.025,-0.035,-0.025,-0.015,-0.05,-0.03,-0.025,-0.035,-0.035,-0.055,-0.045,-0.04,-0.06,-0.045,-0.055,-0.05,-0.045,-0.045,-0.055,-0.07,-0.065,-0.045,-0.055,-0.04,-0.01,-0.02,0.01,0.015,-0.035,-0.07,-0.065,-0.06,-0.07,-0.075,0.0,0.25,0.25,-0.105,-0.3,-0.245,-0.105,-0.06,-0.055,-0.035,-0.05,-0.05,-0.03,-0.035,-0.025,0.015,0.02,0.025,0.075,0.115,0.13,0.215,0.26,0.295,0.325,0.33,0.305,0.23,0.105,0.055,0.015,-0.03,-0.035,-0.055,-0.05,-0.05,-0.075,-0.05,-0.05,-0.065,-0.06,-0.045,-0.055,-0.055,-0.03,-0.055,-0.045,-0.065,-0.065,-0.04,-0.07,-0.055,-0.06,-0.065,-0.045,-0.08,-0.065,-0.035,-0.065,-0.065,-0.03,-0.07,-0.06,-0.05,-0.04,-0.01,-0.02,0.025,-0.01,-0.08,-0.08,-0.065,-0.075,-0.06,-0.045,0.155,0.295,0.06,-0.225,-0.32,-0.115,-0.065,-0.07,-0.03,-0.065,-0.02,-0.04,-0.025,-0.005,-0.01,0.025,0.045,0.03,0.07,0.15,0.165,0.22,0.285,0.31,0.33,0.31,0.225,0.17,0.095,0.015,-0.005,-0.02,-0.055,-0.06,-0.045,-0.055,-0.055,-0.065,-0.06,-0.04,-0.06,-0.04,-0.035,-0.03,-0.04,-0.05,-0.05,-0.06,-0.06,-0.07,-0.05,-0.05,-0.06,-0.075,-0.065,-0.07,-0.075,-0.06,-0.075,-0.065,-0.06,-0.075,-0.055,-0.06,-0.07,-0.06,-0.03,-0.01,0.01,-0.005,-0.055,-0.055,-0.08,-0.07,-0.055,-0.055,0.13,0.32,0.12,-0.23,-0.305,-0.17,-0.02,-0.055,-0.06,-0.025,-0.025,-0.02,-0.01,0.035,0.03,0.03,0.045,0.09,0.095,0.14,0.205,0.225,0.3,0.355,0.35,0.34,0.275,0.21,0.1,0.045,0.03,-0.015,-0.035,-0.04,-0.035,-0.05,-0.055,-0.045,-0.04,-0.045,-0.03,-0.035,-0.035,-0.035,-0.04,-0.015,-0.05,-0.055,-0.045,-0.04,-0.03,-0.085,-0.065,-0.055,-0.05,-0.05,-0.045,-0.045,-0.075,-0.055,-0.065,-0.055,-0.05,-0.05,-0.045,-0.05,-0.05,-0.01,0.05,-0.03,-0.065,-0.05,-0.06,-0.055,-0.065,-0.05,0.075,0.3,0.14,-0.195,-0.31,-0.185,-0.05,-0.05,-0.045,-0.035,-0.025,-0.01,-0.005,-0.02,0.005,0.02,0.04,0.05,0.085,0.135,0.165,0.22,0.275,0.33,0.35,0.325,0.3,0.22,0.1,0.055,-0.01,-0.015,-0.045,-0.055,-0.05,-0.055,-0.05,-0.075,-0.035,-0.07,-0.065,-0.05,-0.055,-0.065,-0.065,-0.045,-0.075,-0.055,-0.06,-0.08,-0.07,-0.08,-0.085,-0.07,-0.085,-0.08,-0.065,-0.085,-0.085,-0.08,-0.07,-0.08,-0.085,-0.08,-0.075,-0.055,-0.055,-0.045,-0.03,-0.015,0.01,-0.06,-0.075,-0.075,-0.07,-0.09,-0.09,0.015,0.245,0.24,-0.08,-0.31,-0.275,-0.065,-0.09,-0.07,-0.04,-0.045,-0.025,-0.03,-0.015,-0.015,0.01,0.005,0.04,0.075,0.11,0.14,0.205,0.275,0.285,0.35,0.355,0.3,0.25,0.145,0.08,0.025,-0.005,-0.035,-0.045,-0.035,-0.045,-0.035,-0.035,-0.045,-0.035,-0.055,-0.045,-0.025,-0.03,-0.015,-0.065,-0.06,-0.035,-0.06,-0.04,-0.035,-0.045,-0.035,-0.045,-0.035,-0.045,-0.06,-0.025,-0.04,-0.055,-0.025,-0.025,-0.045,-0.03,-0.035,-0.045,-0.04,-0.045,0.0,-0.01,-0.005,0.035,0.035,-0.01,-0.075,-0.05,-0.045,-0.04,-0.035,0.005,0.3,0.275,-0.08,-0.29,-0.25,-0.07,-0.025,-0.045,-0.04,-0.03,0.005,-0.02,0.0,0.005,0.015,0.025,0.05,0.09,0.11,0.155,0.175,0.245,0.31,0.315,0.345,0.31,0.245,0.165,0.08,0.015,-0.005,-0.03,-0.055,-0.035,-0.055,-0.055,-0.035,-0.075,-0.07,-0.04,-0.05,-0.055,-0.05,-0.035,-0.065,-0.045,-0.045,-0.05,-0.03,-0.04,-0.05,-0.06,-0.055,-0.085,-0.06,-0.05,-0.075,-0.06,-0.07,-0.08,-0.075,-0.055,-0.08,-0.055,-0.035,-0.045,-0.03,0.005,-0.01,-0.09,-0.07,-0.075,-0.08,-0.055,-0.07,0.155,0.255,-0.07,-0.325,-0.32,-0.14,-0.08,-0.1,-0.04,-0.065,-0.055,-0.035,-0.04,-0.035,-0.02,0.0,0.03,0.05,0.065,0.115,0.15,0.21,0.29,0.31,0.33,0.32,0.235,0.16,0.07,0.02,-0.005,-0.05,-0.045,-0.04,-0.07,-0.06,-0.045,-0.035,-0.06,-0.055,-0.035,-0.02,-0.04,-0.035,-0.025,-0.045,-0.03,-0.035,-0.04,-0.045,-0.04,-0.035,-0.035,-0.05,-0.015,-0.035,-0.06,-0.045,-0.045,-0.045,-0.045,-0.04,-0.04,-0.04,-0.045,-0.03,-0.02,-0.03,0.035,0.04,-0.015,-0.05,-0.04,-0.065,-0.05,-0.07,-0.025,0.245,0.285,-0.045,-0.28,-0.26,-0.075,-0.025,-0.08,-0.045,-0.045,-0.02,-0.025,0.0,0.005,-0.015,0.02,0.055,0.065,0.09,0.145,0.185,0.24,0.325,0.34,0.34,0.355,0.275,0.185,0.115,0.035,0.01,-0.035,-0.025,-0.01,-0.045,-0.03,-0.045,-0.055,-0.045,-0.03,-0.045,-0.045,-0.03,-0.04,-0.04,-0.04,-0.035,-0.045,-0.04,-0.045,-0.065,-0.055,-0.065,-0.065,-0.07,-0.065,-0.08,-0.095,-0.05,-0.07,-0.055,-0.065,-0.07,-0.05,-0.06,-0.035,-0.005,0.01,-0.005,-0.06,-0.09,-0.065,-0.085,-0.07,-0.085,0.07,0.335,0.145,-0.165,-0.32,-0.19,-0.045,-0.11,-0.04,-0.045,-0.05,-0.005,-0.035,-0.05,-0.01,0.015,0.04,0.04,0.065,0.12,0.165,0.21,0.235,0.315,0.345,0.34,0.295,0.21,0.145,0.025,0.0,-0.025,-0.03,-0.045,-0.065,-0.07,-0.07,-0.04,-0.065,-0.055,-0.035,-0.05,-0.065,-0.05,-0.05,-0.045,-0.05,-0.05,-0.065,-0.085,-0.055,-0.095,-0.08,-0.065,-0.065,-0.07,-0.08,-0.06,-0.055,-0.075,-0.055,-0.05,-0.035,-0.04,-0.015,0.005,-0.035,-0.08,-0.075,-0.06,-0.095,-0.075,-0.05,0.155,0.295,0.005,-0.305,-0.305,-0.14,-0.05,-0.07,-0.055,-0.05,-0.025,-0.03,-0.01,0.0,0.01,0.03,0.03,0.05,0.075,0.125,0.175,0.22,0.285,0.32,0.33,0.33,0.265,0.15,0.07,0.02,-0.02,-0.015,-0.03,-0.06,-0.035,-0.065,-0.045,-0.035,-0.055,-0.035,-0.035,-0.035,-0.025,-0.015,-0.03,-0.055,-0.035,-0.055,-0.045,-0.055,-0.065,-0.035,-0.06,-0.065,-0.055,-0.065,-0.055,-0.06,-0.07,-0.055,-0.025,-0.015,-0.01,-0.03,-0.095,-0.085,-0.08,-0.095,-0.095,-0.02,0.225,0.19,-0.145,-0.295,-0.27,-0.095,-0.065,-0.115,-0.075,-0.06,-0.075,-0.04,-0.035,-0.045,-0.02,0.0,0.04,0.035,0.085,0.13,0.195,0.26,0.285,0.34,0.35,0.305,0.235,0.155,0.07,0.03,0.005,-0.01,-0.02,-0.01,0.01,-0.02,-0.03,-0.01,0.01,-0.02,-0.015,-0.03,-0.03,-0.005,-0.005,-0.02,-0.035,-0.025,-0.015,-0.03,-0.025,-0.045,-0.05,-0.02,-0.055,-0.045,-0.015,-0.01,-0.015,-0.005,0.045,-0.005,-0.075,-0.05,-0.03,-0.06,-0.065,-0.035,0.165,0.305,0.05,-0.245,-0.295,-0.115,-0.05,-0.07,-0.04,-0.04,-0.025,-0.05,-0.01,-0.025,-0.03,0.0,0.01,0.065,0.085,0.115,0.15,0.225,0.265,0.28,0.335,0.31,0.24,0.155,0.09,0.0,-0.055,-0.05,-0.05,-0.045,-0.065,-0.05,-0.055,-0.055,-0.06,-0.08,-0.07,-0.045,-0.055,-0.07,-0.045,-0.07,-0.07,-0.075,-0.075,-0.06,-0.05,-0.055,-0.09,-0.07,-0.06,-0.08,-0.055,-0.045,-0.04,-0.055,-0.055,-0.04,-0.055,-0.035,0.0,-0.01,-0.065,-0.095,-0.08,-0.09,-0.095,-0.095,-0.03,0.24,0.21,-0.13,-0.32,-0.26,-0.09,-0.09,-0.11,-0.065,-0.06,-0.05,-0.065,-0.06,-0.03,-0.03,-0.01,0.02,0.035,0.08,0.12,0.18,0.24,0.275,0.325,0.33,0.315,0.22,0.15,0.065,-0.03,0.0,-0.055,-0.05,-0.055,-0.06,-0.035,-0.05,-0.05,-0.055,-0.055,-0.065,-0.055,-0.05,-0.05,-0.05,-0.055,-0.05,-0.065,-0.07,-0.08,-0.045,-0.045,-0.045,-0.025,-0.035,-0.025,-0.045,-0.045,-0.04,-0.03,-0.03,-0.01,0.005,0.005,0.015,0.055,-0.005,-0.04,-0.01,-0.05,-0.04,-0.065,-0.005,0.145,0.315,0.14,-0.24,-0.325,-0.16,-0.045,-0.025,-0.035,-0.04,-0.005,-0.005,0.01,0.01,0.02,0.03,0.07,0.045,0.095,0.16,0.175,0.235,0.285,0.325,0.325,0.36,0.28,0.155,0.115,0.045,-0.01,-0.025,-0.035,-0.065,-0.065,-0.055,-0.055,-0.055,-0.06,-0.045,-0.035,-0.05,-0.07,-0.05,-0.06,-0.045,-0.055,-0.07,-0.05,-0.07,-0.065,-0.06,-0.045,-0.07,-0.045,-0.035,-0.08,-0.07,-0.065,-0.045,-0.05,-0.02,-0.035,0.0,-0.025,-0.09,-0.06,-0.075,-0.075,-0.09,-0.07,0.145,0.28,-0.015,-0.325,-0.35,-0.19,-0.07,-0.07,-0.05,-0.05,-0.05,-0.035,-0.04,-0.02,0.0,-0.015,0.035,0.025,0.095,0.145,0.13,0.23,0.255,0.305,0.335,0.315,0.24,0.155,0.095,0.02,-0.03,-0.04,-0.04,-0.06,-0.05,-0.06,-0.075,-0.06,-0.05,-0.03,-0.04,-0.055,-0.055,-0.035,-0.035,-0.045,-0.03,-0.045,-0.045,-0.045,-0.045,-0.05,-0.06,-0.06,-0.065,-0.04,-0.045,-0.035,-0.03,-0.03,-0.03,-0.03,-0.005,0.015,0.02,-0.045,-0.06,-0.03,-0.065,-0.045,-0.045,0.065,0.32,0.2,-0.155,-0.31,-0.205,-0.04,-0.06,-0.02,-0.015,-0.05,-0.005,-0.02,0.0,0.015,0.03,0.045,0.045,0.11,0.13,0.17,0.225,0.275,0.33,0.355,0.365,0.31,0.245,0.14,0.075,-0.005,-0.015,-0.015,-0.05,-0.02,-0.04,-0.055,-0.04,-0.04,-0.045,-0.035,-0.055,-0.025,-0.04,-0.055,-0.035,-0.06,-0.04,-0.06,-0.055,-0.05,-0.085,-0.055,-0.045,-0.065,-0.08,-0.065,-0.08,-0.07,-0.05,-0.065,-0.08,-0.04,-0.05,-0.025,-0.005,-0.02,-0.065,-0.105,-0.09,-0.08,-0.085,-0.11,-0.01,0.27,0.23,-0.15,-0.34,-0.265,-0.11,-0.09,-0.095,-0.065,-0.075,-0.075,-0.055,-0.025,-0.04,-0.03,-0.005,0.015,0.065,0.06,0.12,0.155,0.21,0.285,0.305,0.325,0.28,0.21,0.125,0.045,-0.01,-0.045,-0.06,-0.075,-0.075,-0.065,-0.065,-0.065,-0.065,-0.08,-0.065,-0.055,-0.07,-0.045,-0.055,-0.055,-0.06,-0.08,-0.075,-0.065,-0.055,-0.06,-0.055,-0.07,-0.065,-0.06,-0.06,-0.04,-0.07,-0.07,-0.04,-0.03,-0.035,-0.02,-0.005,0.01,0.005,-0.055,-0.065,-0.055,-0.05,-0.06,-0.02,0.175,0.305,0.065,-0.275,-0.31,-0.15,-0.015,-0.02,-0.025,-0.015,0.005,0.025,0.01,0.015,0.03,0.06,0.06,0.08,0.12,0.13,0.19,0.24,0.31,0.315,0.345,0.335,0.25,0.18,0.1,0.06,0.01,-0.02,-0.03,-0.035,-0.045,-0.045,-0.04,-0.03,-0.045,-0.04,-0.02,-0.025,-0.035,-0.03,-0.025,-0.035,-0.035,-0.04,-0.04,-0.035,-0.04,-0.055,-0.065,-0.04,-0.05,-0.055,-0.005,-0.035,-0.025,0.01,-0.015,-0.06,-0.07,-0.05,-0.07,-0.085,-0.06,0.1,0.285,0.07,-0.245,-0.325,-0.195,-0.04,-0.08,-0.07,-0.045,-0.06,-0.025,-0.04,-0.025,0.01,0.02,0.025,0.06,0.095,0.12,0.19,0.19,0.25,0.305,0.315,0.305,0.24,0.155,0.07,0.035,-0.01,-0.045,-0.065,-0.075,-0.06,-0.06,-0.075,-0.065,-0.065,-0.075,-0.07,-0.08,-0.05,-0.06,-0.055,-0.08,-0.075,-0.055,-0.08,-0.055,-0.08,-0.07,-0.07,-0.07,-0.05,-0.085,-0.07,-0.055,-0.075,-0.045,-0.005,0.0,-0.085,-0.1,-0.085,-0.08,
