0.8725613582515418,0.08490472578795571,0.842498465621019,0.5328233397307651,0.9904102570329909,0.7519092007915287,0.4836447449291196,0.35169602400632727,0.6256372199482818,0.5334496031079144,0.42956781739661254,0.2548419984090321,0.37471855651609753,0.23671864325379777,0.30671228351456803,0.9399167012788053,0.23079390957459522,0.2784204773526232,0.303790607764445,0.9203237004327787,0.3344711327053018,0.6971750741232837,0.5509854826986308,0.28107685671527716,0.3849285876586823,0.45225923916256505,0.1741226548592082,0.5203603954937809,0.8141086315613777,0.8292203099341015,0.626370343747384,0.9772621824673768,0.2851478262386926,0.4255498447426783,0.12187399961344136,0.9161902236118165,0.3933437905778574,0.13374912109469117,0.005773486974336772,0.3399779298143937,0.12365603222436483,0.7246822774710253,0.540754805327019,0.9332170650282393,0.17360154785874637,0.05620918306901557,0.23677192049099816,0.1645279084456236,0.22743880420234153,0.17400322560033799,0.7389519069185038,0.5972349806986702,0.6694631479981177,0.7372540318269448,0.12782015927215284,0.5748595816393587,0.09060167518299489,0.36725005123052556,0.8836608816465824,0.2618560552631467,0.14592361240309104,0.5276400545680511,0.16543065537501755,0.6071992889641651,0.16435453806640465,0.5746048490054031,0.2741976510636286,0.06322897670497485,0.5904065777094609,0.5267316358610249,0.0470037145928337,0.27895105044903423,0.7806549092051074,0.5828058027878696,0.5760737699356815,0.21254697914383291,0.8807203921033293,0.760096724533898,0.5957614796187347,0.5619673051696241,0.3288839998456644,0.37817882823465576,0.30039739715949443,0.42701902103095835,0.9643171371079844,0.15340884699534685,0.7740335598985197,0.2983163009137719,0.999493747598217,0.4985802877557578,0.7947927728446321,0.5486922483690369,0.23404260163857427,0.7560400585252806,0.99249896278613,0.8742860906559241,0.5962810755842012,0.2235168675200908,0.5083325475857972,0.05895786829108929,0.05899406886848679,0.11631024468142082,0.18865741902254562,0.030044961315785934,0.402160398800086,0.6370901499061096,0.9066198806282919,0.36401939108835646,0.7697673990213472,0.053663993692763645,0.15878070792058485,0.9482975817804434,0.5320797461900718,0.512627355562945,0.23972497980956897,0.041866584216909364,0.8781402959204182,0.8436590898494868,0.979349510287873,0.7981121141752503,0.15604123538106085,0.012900727259923528,0.8657301383112834,0.47873973058995356,0.5608423162519208,0.8824078348717757,0.6560967925827919,0.7891820610858982,0.9679043540282166,0.7274195754446039,0.1943628320021601,0.6508493245383398,0.39472100730981763,0.14858932598293484,0.418928081093902,0.059550212441396355,0.793401528297246,0.7311367492316185,0.28522287738618546,0.5200233856364526,0.3584232238645625,0.7127438851236626,0.2686263152965277,0.4821331024446963,0.5529941407969003,0.4667768715309478,0.764217442929694,0.8512793241313343,0.6578130052426192,0.26562704386725533,0.6066428447464827,0.6830620668451123,0.14333496099047016,0.3858210843252491,0.9109787440532525,0.35259766355867905,0.9847973228240279,0.328626777337918,0.17611920922950686,0.5573308349443182,0.09424161660760755,0.7326244044961959,0.63764457979616,0.4211071862468494,0.6393659622199895,0.4834762242166074,0.3491248192454348,0.242944711497874,0.8600172247539324,0.11935350570057113,0.9204404313895732,0.48050336759208856,0.9566344704456619,0.9793370546319549,0.10834550695405665,0.6379928729103128,0.3511904652200396,0.9979914734253152,0.20233588325895802,0.9508142483759372,0.626155361077799,0.3957236981564579,0.24647288463141936,0.006224493490641803,0.6272854887456603,0.48163107457093324,0.9190160027376637,0.9491979471920359,0.949724365243323,0.23228965051964157,0.41228806677066643,0.6367557934699967,0.3748323356969129,0.2642653002986074,0.5792830359062564,0.7762777006458986,0.8998111026422477,0.5550784791992597,0.8062962936885728,0.9322336662984647,0.7474521451261166,0.8229301721836411,0.0149502994314753,0.653422384055992,0.5779944630526913,0.6789102600325453,0.07431828038754862,0.23992107354846248,0.6832409777195313,0.031081008582100944,0.5075135249612235,0.37599767937729023,0.4141645084901291,0.39598456801312687,0.9525258544417544,0.9989217738288626,0.26090819019962574,0.4869131675567464,0.21664959365073377,0.8590032605142673,0.18373506159691289,0.298771316194946,0.1420527449051412,0.0395789172574641,0.5048011028478742,0.22455091617271905,0.2841505373821781,0.8706463132662315,0.3060077350112762,0.8248709878443651,0.4996292140972287,0.9578247508758829,0.30614758046980106,0.5807047377764545,0.8042346611185143,0.618456183153633,0.9298901185777436,0.5428973968100215,0.34007907898795287,0.3247826132792303,0.8224060225431735,0.20111231504391514,0.23537564112367804,0.9286862030923314,0.3712826020949014,0.684574676327018,0.2747955408536047,0.5177837994273786,0.04566178232692886,0.0661906911078004,0.9572809990060643,0.7545505964363922,0.8098061563087138,0.5637220644845187,0.7990914614396749,0.9113342761025589,0.5965546665539672,0.6040334398259642,0.9798152149040743,0.6564055823857394,0.6639273130499771,0.3622866585145388,0.16326275683332625,0.5366531241860845,0.823118961313726,0.9837605256361817,0.9878871294817273,0.09751437706887878,0.7271484312277615,0.9099653192137835,0.8948272067284079,0.7052200515312291,0.1594236754359024,0.39754158531801465,0.23655245860880536,0.22281431222884207,0.03810852305337986,0.6011664730630102,0.4422540698162356,0.05146635328876825,0.7932993947571545,0.24429332449869534,0.5202851023102012,0.9464493995996205,0.21524227088388348,0.8614846941956191,0.952739365730577,0.5971897210031802,0.9067572618183835,0.13359309826361465,0.3848071110772633,0.6924399630414088,0.7912554376737642,0.058017857549614416,0.8915073978124045,0.6389309356014559,0.9908111902502529,0.7007770721917003,0.11749400039733349,0.3658947891608735,0.8746338530750198,0.24026331176230142,0.174854493131407,0.18309478161327386,0.48431474882558145,0.3692613276473593,0.6165628022169124,0.7054469063311868,0.7419617527555584,0.730897504683522,0.5888187818048043,0.820131719191421,0.659351378796663,0.4989357783091958,0.3540545200616121,0.15031714000514163,0.07436521170729515,0.6524387926107637,0.5992873962194962,0.2713984921464949,0.9111178524656496,0.1117798772249492,0.977892697512067,0.015765553154672096,0.060495375774588744,0.6964931316111387,0.8669891411181299,0.3169784002800178,0.3692212847689099,0.6974256897309559,0.5520900750470699,0.6414780921989068,0.9117251349046432,0.84832627419716,0.6761153924255716,0.4529145047664509,0.6021392415368936,0.0652491974449495,0.5152898864214897,0.5506210154732782,0.1630971110046101,0.1391450668953217,0.03043794118361487,0.8793624134773114,0.204414305025181,0.6748326534476128,0.9042163030038494,0.7527341387284741,0.8345900607746495,0.7106210347681345,0.03293496247941896,0.6700508669001001,0.9635282084202387,0.6842788325706768,0.16065760548351893,0.8445675000218146,0.6247582469419065,0.11600140228199562,0.9662182749052306,0.7897981175435416,0.8289451794182432,0.8989914109225117,0.10933019349673023,0.5404759251989899,0.8796301705401908,0.4526729827975988,0.3107769972269404,0.2842143181613327,0.04779080594731433,0.8055115518843037,0.4267101646187227,0.052565409825161,0.672555121437472,0.624871706193569,0.2969006300726036,0.2966259817508754,0.2856764424107048,0.3699302211886044,0.5089504245394499,0.7674513642204787,0.7784490239823503,0.10965101921845233,0.597995334839949,0.18374088116302312,0.7904617716782605,0.3972509176720441,0.8694588678405046,0.30843763380121647,0.1540272566170886,0.7683044876746267,0.9836765292814221,0.6844168208466184,0.09283126503401917,0.9177139733604195,0.36614645255654477,0.0714113874297968,0.7886997464565348,0.5339065405826271,0.7234855707106007,0.5327647257164765,0.17284634785687203,0.8916663337389702,0.45394856604992684,0.3604649579026704,0.45126421121575877,0.3166829349127369,0.8387745199183526,0.018396572794139976,0.6990195992457141,0.19979309683493973,0.42230018782814993,0.6362471605221559,0.33964525045208416,0.4103291466719672,0.254322721822851,0.4870199813990884,0.645450904229023,0.9670453593743839,0.20369558623431305,0.9788802807511566,0.2310640715263368,0.13472479230598933,0.4866918915862042,0.4836572176677755,0.756958674642811,0.4984517995761665,0.040205974622884666,0.23436559338530616,0.24762994025562624,0.4675381907088373,0.00176696793566411,0.3187633511272189,0.45569170547130833,0.4968534133090763,0.30948949043436036,0.18743853427737878,0.6042062781587569,0.43448366537569616,0.011205014851379813,0.24838536462916672,0.6145550232936337,0.6449416906210628,0.33283177634513406,0.8519289958835263,0.7297293414808291,0.04819742448361408,0.15699488628931846,0.01469312478933782,0.03052543335499136,0.660666502168896,0.03004124536726427,0.06661364918312418,0.9793314662455105,0.940172039080921,0.6422559437205592,0.7479046367154695,0.07151761504508403,0.40851323642275394,0.16745233297684126,0.9789702599348894,0.1099148486094097,0.7574015056976341,0.9283742105262811,0.42885328432706293,0.4028880383992448,0.3720143289792288,0.11158783509033954,0.7001633710769722,0.8468155173864844,0.09410619791544772,0.7945378465732168,0.8974897549308425,0.0871973572571787,0.10423592109959534,0.09867693990512094,0.46973357649282543,0.9307355740970112,0.9777350626381541,0.12557391723708355,0.1324711059995053,0.07043989089886915,0.9404750768901101,0.21062455991307427,0.42736750528037004,0.15315768617105496,0.17643845635227584,0.7320758163641916,0.5657823063184384,0.5595901584191709,0.5904300057163445,0.48320564332359917,0.9617430675030121,0.8971770478304573,0.6022672050949374,0.44230275785498774,0.18766432746431327,0.7609557192542238,0.6640159166441167,0.022472336819840844,0.11762428377906986,0.825566364491795,0.08905992795165474,0.0839932341582651,0.2830233023083327,0.27760611702145344,0.13598073508565922,0.30358525860970786,0.7778598135479341,0.6095609840775649,0.9880913291760042,0.5268514316423195,0.8869438712054758,0.5554356953332192,0.39925979072012185,0.7830580374179432,0.47585202277096383,0.8403941279875253,0.20302435666722674,0.33514180318416953,0.6748953957390378,0.06834705616191705,0.8471546826722436,0.6753639076590714,0.010637285743444469,0.46127401136437995,0.49864608891353046,0.7493824271217978,0.42690443542149403,0.7819668789803038,0.05908335106226992,0.4461650311768667,0.8397565229951791,0.22945605147841597,0.10925307242130144,0.7125416425661182,0.39405461893705174,0.3350745024419478,0.18280474268955804,0.23436011474942087,0.8315505959496505,0.8218026507915722,0.8122157361244428,0.7085402162287118,0.8510484432056932,0.44365577828654046,0.21517689627903913,0.15372979781555407,0.14535661245017384,0.25752925064617227,0.567032711057818,0.2548444906119639,0.7806592439804392,0.7969310284155298,0.8211377434046881,0.4250578678129139,0.9438143601148656,0.526435549330037,0.9899110754740115,0.9143834902494866,0.2551639350178073,0.38400203542339373,0.7862467228639876,0.5801431216511487,0.5513089578405279,0.5306455892297961,0.074942183655755,0.5952133172736606,0.7117344512041889,0.7610411354812718,0.013803710454313722,0.9050935210185109,0.4801310348640532,0.8468091500855499,0.7326090168152669,0.28951580260246546,0.5253065793395085,0.14284251624763056,0.7004748141239929,0.108489084539937,0.2404939963127103,0.4926158941786142,0.4840242898724535,0.4287895178859066,0.43169354445504493,0.6310611729331269,0.7380367094533518,0.6841790052880516,0.646287379622152,0.06918886977962202,0.24389761023944345,0.5566625394766169,0.05410973328209179,0.2712263182388166,0.7063322578002115,0.13702291429756264,0.5495711366973222,0.4434947883443455,0.8608973951729441,0.9813749958379159,0.20859251540958346,0.3446339343695848,0.2367811023726607,0.8033707797683957,0.21769887484642814,0.8296817952061233,0.1083396109702165,0.09087202288953011,0.10642924651983166,0.09065203242346864,0.32838148416051716,0.8637302349405519,0.2801423805221188,0.397965878996553,0.10556865973240825,0.8581235568975031,0.6485716925608253,0.4501710689285128,0.09289963854682148,0.888389803615646,0.8368011155874703,0.9439797820020243,0.8643732649036678,0.5391294216558661,0.16813700867399095,0.15408557574007797,0.6538984346646219,0.26105074753119273,0.9447539354629069,0.04198587324470626,0.5088405241605685,0.052253796656649754,0.23541896953302832,0.1927334841807148,0.485208293056417,0.6148568834713569,0.5642094591513452,0.42353476628614173,0.7618999412731028,0.4432444936381499,0.2803985713163506,0.22338699443773702,0.7877571891772679,0.10571449622314999,0.8453928953989367,0.583702480560289,0.3489781829034234,0.9084943545652894,0.16932554692741997,0.9001305986835816,0.8693157257790802,0.9949510859666901,0.3833066592607103,0.2592945935378008,0.5792956172201682,0.08495380924500018,0.49713117159008313,0.9406711573103204,0.24123115584227495,0.2205071055463036,0.7979012902084275,0.10255078457542866,0.5571063129288453,0.5999324568481581,0.8438102866376678,0.07908182970790223,0.8101021354787303,0.5003663327089148,0.37471861995617195,0.5029195337031547,0.39179836056100004,0.43126795815537533,0.2765910659872496,0.39772374371235064,0.6424147267836963,0.4720454261399297,0.8814327673193572,0.2037729943667057,0.5364434963225463,0.1514965773459097,0.9630322710260754,0.3176152223840343,0.4628448125954854,0.9301567710512171,0.48606004033276085,0.7608099067343601,0.1665892495643464,0.09546550446857827,0.6461414133239052,0.322314547620669,0.47218271749958185,0.6521110680580768,0.8622241648576835,0.7869050171707898,0.5224940786476003,0.9127803468499786,0.9427631698810798,0.8374223892631284,0.9061392618254506,0.5605613740757116,0.31031406738555434,0.9112655623937986,0.8318365358943438,0.8342787297740754,0.6173032762593448,0.6230027837125403,0.29236114145911607,0.23095994415860632,0.7561552552121981,0.6573031735890879,0.22194185325312366,0.045131349687098865,0.8070001290363935,0.4785064263402523,0.3797115108051111,0.2185660300133888,0.24885004796122379,0.661572080970841,0.9407562442413332,0.8342375726728941,0.8872273117025167,0.3523219083532182,0.6878952628257919,0.3085653281624985,0.5001591854485238,0.09200902482166473,0.29169934989126656,0.7191936149055369,0.7469708948041411,0.8783013290904622,0.04009414064061578,0.9404994162665535,0.5218561766137431,0.03302943192375751,0.013992141071082154,0.7053260783166405,0.43843472282277474,0.7726082549832505,0.7498483319822619,0.40205454020603215,0.07986633960015699,0.26454074810588135,0.015121420338768843,0.37912970749073005,0.35375124109529776,0.825013830910316,0.8921462269586142,0.5945566390049645,0.6696328355332455,0.6946855763537473,0.20516166926384016,0.6861518487650871,0.4954094767614837,0.9543066540406988,0.18129458420406963,0.8234694197723904,0.9901683262659103,0.39315414274566274,0.1462314479680945,0.5488568674556661,0.9178285060557422,0.6560365150555394,0.0954857264219805,0.8606752226858049,0.2336664420050536,0.0589311478608463,0.31562620306168276,0.5032256333083828,0.9528265833661285,0.31141060767925,0.14965698362752167,0.2382727526046371,0.24884746729955154,0.7848617540372295,0.8158739116202336,0.19447009126967962,0.6517550826795093,0.8537410551523956,0.5245010975911449,0.6661141355557644,0.7319274417522558,0.5151327846378815,0.416142632611772,0.8889856827689986,0.38445441725995533,0.3010738062980437,0.0833294718719827,0.23141902964948868,0.8798073747100648,0.3220149970878744,0.6519945341850998,0.8325460980414037,0.9657764768963686,0.45362930909066534,0.05234743180695978,0.28399393698969155,0.0472338097399968,0.5958739166713484,0.9259850323006817,0.4838239623617936,0.6516495716573056,0.8975641042924808,0.47658066793203013,0.1943543288835441,0.2816647462650972,0.06357018943394388,0.05365513849882986,0.14909346165251924,0.555417702980413,0.2875536076558681,0.3779304808242351,0.8606551431640076,0.36381155577776525,0.6624288605362353,0.4454507854185875,0.3355390052705294,0.20893970872052892,0.02448469050230595,0.4539632734471142,0.8946844409982,0.3935283262519922,0.271414015019524,0.4151291103526912,0.549966780961912,0.7142401383109233,0.3076493154407439,0.7381022974075314,0.6385400846208504,0.802170427992903,0.10315965590285969,0.32202894327300524,0.8843342659785756,0.9830001619553451,0.39650887796900014,0.6800692100335038,0.7891213117880544,0.6275617941993481,0.8930800143415115,0.21924415937306363,0.07765940409807881,0.8908357775484059,0.06399708226851941,0.8151156120249052,0.22797045695652596,0.4139899945043861,0.9634957595645128,0.47181333918353496,0.6773097365694122,0.7184525511682446,0.17322147257993237,0.7192685073340296,0.012991245376721361,0.5456530124055212,0.40243012752944574,0.36112306829284313,0.2980961996151198,0.12813919540961272,0.8293080477684943,0.8973877577607445,0.6415647719078759,0.8898131268282381,0.8523176157295536,0.43983831715079513,0.5124652665978451,0.8159013217473392,0.9996695808123668,0.04223635771367673,0.4392279064284017,0.03233952071509261,0.8611295845779339,0.2793369229118978,0.6646107885272082,0.31746582145483304,0.20366820952253506,0.22136572656512565,0.7313168147889562,0.45232847092697637,0.13906646213359386,0.2917971521330808,0.5745899094580071,0.5288567569813186,0.69114832103563,0.3591548263138341,0.9546929730703496,0.9894452548407273,0.003299011426070808,0.07252992061351948,0.16362587634489922,0.42207610722633426,0.14353583930651004,0.9687300238292741,0.7025081945164487,0.6590593832651661,0.2264616381949076,0.26921005582690705,0.9691268358163543,0.6576113219264644,0.8691449458994394,0.947369390286924,0.44035272617598475,0.34179611887583994,0.5239153354422874,0.9676815809707475,0.3645831848033987,0.9228195500735897,0.32811614485326857,0.3208256494318117,0.019334315460258655,0.7378702671970643,0.1967504469774216,0.8216356924018138,0.4150867822111861,0.47571207056212395,0.92566243445921,0.6980039065157145,0.3633401783432294,0.23874412247896315,0.09824368212636025,0.015247720406966647,0.10503607088174682,0.038129408665080744,0.8279603778068401,0.9387547500662103,0.12964265239697126,0.20872103697271083,0.03402325301345466,0.31702495745471393,0.18878396485793458,0.5600430426642033,0.16711663031856583,0.8378112372770449,0.9838334379366763,0.21671553139646793,0.6172036651047178,0.4864099446544523,0.5164107718042631,0.20141185356555769,0.7602468632459911,0.8116849790360638,0.3798206585241809,0.5766941704548935,0.6166686975137788,0.5542211418913033,0.7554404883187673,0.3962428874048801,0.43522136978877357,0.652851237918356,0.7183618433444591,0.474368949072294,0.3572320862596614,0.32592686794612613,0.5177567240452449,0.15592494323064265,0.33258503459752076,0.08322529010822077,0.47533410761367145,0.5212011313762093,0.7747009237029269,0.6410816669654306,0.19394204325853237,0.6983724812246953,0.5725749001105488,0.2788028177863603,0.49957297683977364,0.6578196322835107,0.7443811314904368,0.3050719707213295,0.2938611791133333,0.5088887541864159,0.8946873176024606,0.25584577195632496,0.2156674386298022,0.5827826237724434,0.32557414099947357,0.756485432878086,0.887716195397317,0.7584016380838019,0.6848018740223721,0.6293951810707193,0.8350020696285532,0.4543123289940907,0.8468962658224932,0.6952280921590523,0.5152201673529997,0.4655117556704449,0.30572365952986336,0.09740604841243006,0.04174895433016723,0.3099624407845393,0.29455220160071227,0.29094799367832025,0.3544589509710696,0.5924754369899284,0.6760723019424,0.044379571784188165,0.05790212743932133,0.07364979196917665,0.042851883857018214,0.18629233672872247,0.0885814257862858,0.1952898352725656,0.21665206705973905,0.062335762867300026,0.32550013136197975,0.4446781942912821,0.6411732820302617,0.6371108575647314,0.6487026932556108,0.13208582143244385,0.05513131592182485,0.6213216233181538,0.9305586185567065,0.1551432591717451,0.6822856520311225,0.4337431912970775,0.5521617758844595,0.3877438083957727,0.9549873845893211,0.6815964409896224,0.9666577403101153,0.6281727916962051,0.1887232123735164,0.27776878580438713,0.6644541128920809,0.6485825330937852,0.2515096857232637,0.5686375660470718,0.3008330000146653,0.5547071787848158,0.32368291591545084,0.5645980616219326,0.29247698032418856,0.8364064717898997,0.8823108612532775,0.8298797400560954,0.9488416801454912,0.9621096169108174,0.16328448960061148,0.998899575578563,0.07780859172697474,0.8473889206795062,0.7162004333657543,0.00714057349738817,0.6338285755951998,0.8468678085598998,0.660600274224792,0.39434582111093575,0.01771161839385471,0.22428812777964047,0.0933091724442141,0.8517221479909108,0.5822556441440655,0.695947319857194,0.30522161488829935,0.17147453711531935,0.2851446927230856,0.34472513120387227,0.7870046485190723,0.38004533478246016,0.439585533692602,0.19153373946763852,0.06279322075027971,0.9181981903044231,0.16368918678214117,0.4847459772819004,0.967931961920894,0.4905127201069259,0.4159386076547218,0.19711664055506561,0.3093974340725517,0.34369152944956716,0.6834622801874026,0.02607311346099428,0.0011676768405450844,0.7118548214978904,0.8951781157148252,0.8132869260805975,0.6460637927669187,0.5822484631260175,0.37607560657121,0.03791812580178022,0.22041113969482717,0.19763618689962492,0.2983835093448163,0.6619431199854943,0.2684415747565304,0.9759236375381877,0.06827017378970479,0.5323612688913326,0.8168773065073097,0.5736913891161962,0.010386238820473737,0.6607952835768335,0.057892740647597196,0.8619176271671839,0.26291412375516354,0.7125525589138427,0.9217942332978719,0.6932040865059951,0.5009465485474963,0.8430193439013933,0.7143854877237025,0.5581878723291842,0.30334689921282554,0.8536329242354881,0.4850253027078103,0.4349738495754213,0.4032858336243764,0.7286080489318815,0.121724250178471,0.5193755943854381,0.37026149879096915,0.9992495318465757,0.9470998343367558,0.4000157166948545,0.31127945462306106,0.9487375721594323,0.6865449234013081,0.30835844961045455,0.11349631593916443,0.05108289111067199,0.22657869130228703,0.5674990610598363,0.9935878491496165,0.8439451132018481,0.49794045979105506,0.7817877350020307,0.23296319392433829,0.7934588622098708,0.8689780300051556,0.21788664069689134,0.680912031880206,0.7316858620728599,0.16966365718952303,0.07655265258263388,0.19385234420077246,0.26164923024332876,0.8631673110731434,0.041670466884923374,0.5132168238885517,0.36596791598475076,0.905988891653669,0.07948142105656253,0.32447020255694803,0.14004733761238142,0.1269548647658969,0.3262610611411575,0.7019524040843608,0.911113660909757,0.5704263456787034,0.3059943960590198,0.10890655206678623,0.6208716244791999,0.9217374340315484,0.13337384509603467,0.6935945705655454,0.7836527947106371,0.11523685163752351,0.6572470959971737,0.7209918177153052,0.2122229362793323,0.8573454015582449,0.6096632341297527,0.07152509768122062,0.4393133071072737,0.5586292043617298,0.6412081705430503,0.25787033326414277,0.9997159623306656,0.39119995376538386,0.9418392579172351,0.04131174382605829,0.8579369053793205,0.38385747898553957,0.9172447013493529,0.22546385180437334,0.0748431967858868,0.23967955487063508,0.22168181110251428,0.5901975905205956,0.6520417088822043,0.6321567868448638,0.15384589696822049,0.853437729753895,0.6077634441661155,0.20874542792580675,0.8135198948014781,0.12814730115836104,0.8245893493293082,0.14588223089041308,0.011977056379376738,0.7160127815399204,0.2945176247392033,0.48381554824582507,0.631696591682044,0.5305509340639826,0.20960292648247014,0.544814296897404,0.2940266823786959,0.10308123636402289,0.8819719947899113,0.3716873356772955,0.2834822609463975,0.5926215240368555,0.644656778413191,0.6645630427591831,0.25866470503883165,0.5170765220115541,0.5260576051411098,0.9508982814836957,0.5130645173022627,0.4283645843104552,0.06583014304906398,0.44877678613473315,0.9886660699974318,0.8149462794524227,0.057214050732343535,0.37016855033598817,0.25878487933061123,0.2672942006333563,0.32272788586184076,0.5497423371471096,0.6444819591211152,0.3709169418451488,0.036604393647287514,0.2931662327529089,0.6244475806808316,0.4863052706869766,0.42589656465573056,0.6096934796432933,0.752396274701651,0.8037870532257697,0.7795263025995225,0.6454562263789194,0.4384010887076736,0.6650789099201336,0.38464872457423105,0.10698510335127742,0.45971302383537394,0.8361727489712306,0.6586127292339086,0.9946479432912925,0.3595486272342805,0.7971484821649842,0.25642961995298563,0.15283997437597885,0.17091816846329932,0.4446348818121242,0.599489139074869,0.1432784068835805,0.9794521491966061,0.8431909368270997,0.6605600036005123,0.8759328857252736,0.34172593116029626,0.6864861509915722,0.20562400567182804,0.33779106224826405,0.5298215625595686,0.6477577000303255,0.6978757637240959,0.8777395133079144,0.8412489330994305,0.7023630622541859,0.307578698327694,0.29383193645460515,0.05158372695935565,0.734589100215953,0.03273987414509694,0.07657307466521013,0.16426848410484252,0.4424570778673518,0.2665411225618559,0.22282125538086162,0.7424211426263033,0.23081785078213024,0.1762249152530414,0.4394144873975876,0.13828613309155358,0.5134641526355441,0.687299345250119,0.5952016374427002,0.28006183347070324,0.8419266188487631,0.1784896399654755,0.33322915094505257,0.48092236954218803,0.26420878302734485,0.8950030755878574,0.3187374128999768,0.18824490474827926,0.18695432580333338,0.763376635624654,0.7093841287614273,0.16017150887130716,0.17348503956515338,0.8362202924382526,0.8036780036574447,0.24373237789703062,0.3482938908957227,0.23404088701843728,0.24220242259514357,0.4804926738163958,0.14672770292618342,0.3208131559465689,0.37580807938502614,0.9972792632177633,0.7050055910662775,0.5302379764703513,0.7824788647352884,0.9584299375698796,0.283798698232239,0.7699721979076259,0.38014081177164627,0.5414983098703299,0.7654147088392526,0.538767009106748,0.5027880716033759,0.21372392399035256,0.7661362633167325,0.7947119981788144,0.5777559932588435,0.9679871621020675,0.4851579307732503,0.13462700191186472,0.9795166575574041,0.2176038413846556,0.8999010303925604,0.9895576268142233,0.5568185196909429,0.8869606063757548,0.38815711992580604,0.6804600393114312,0.372778883428157,0.5764715133989503,0.9017327830044981,0.3937891517319778,0.7055875910461512,0.9406377477308838,0.8966895362964168,0.0001021793669720994,0.5770312955982828,0.6950387025119953,0.6167979992752747,0.9436650252421146,0.8806542326249989,0.3619883357171495,0.0016526901938326288,0.5367979647532609,0.8742939546503393,0.22814534782306917,0.2874790300028276,0.42241814816658496,0.9770669008200911,0.20124872048207998,0.43275438043568826,0.36909902246748216,0.6795793812482679,0.2641212549347304,0.7676440069706056,0.6206795044794955,0.5575615203065495,0.18280037054149578,0.8058092040677501,0.6576977118973675,0.6169426090990437,0.8997612121832343,0.5058737314673347,0.797713849343259,0.6005575974646273,0.7156408649710412,0.8751377158279948,0.25519773340298835,0.3603756371976402,0.6155828196965849,0.5907359374738302,0.26747699663158453,0.19074904679568738,0.08005839105905,0.9278810552709398,0.999169070992073,0.002911524082001682,0.6538218893938831,0.12219470436837643,0.28151145327349203,0.36397686675783203,0.6820598122644003,0.022537420779059625,0.7900032754851936,0.5880785486809476,0.5260062814105336,0.5704871062865553,0.44902512840537245,0.6647454691460641,0.1966750505739343,0.5143466801816465,0.20459831617908153,0.9647170026208651,0.008741053764760642,0.663849827316484,0.5079414460494774,0.9301020014124047,0.21944284100294764,0.027653089624375626,0.34470051274127944,0.4498272776286717,0.047775240028076205,0.765095619048028,0.7334953402023305,0.29633141020888953,0.043698895962042905,0.25517662984257483,0.12131409546079053,0.16318736876768403,0.283681936323841,0.38673720699294156,0.6452401965870972,0.21466234268069362,0.24342088449363575,0.32554088837236483,0.6383201659209621,0.4705260545037818,0.44195516405591995,0.2822556933657808,0.22622621072394922,0.1934334036282922,0.617064507023501,0.7057983131341982,0.25715089704212857,0.41923299247770773,0.0960059806285728,0.652047953361273,0.15129352942798502,0.2986113494535054,0.3206662437073926,0.14520897949488143,0.2461903335284369,0.8252295148362075,0.11978349164705071,0.7933816122226934,0.617536086846253,0.38209848698487014,0.6341184926085455,0.8374745839339095,0.9687079861433117,0.2677273389903104,0.4597060359166749,0.1566024449547574,0.0845185032382969,0.1367747271309514,0.26448043023503265,0.46394176354053906,0.3758060762523814,0.5137878787251678,0.009635162924760299,0.3569176259169303,0.6222559933352421,0.16698773125542854,0.07994312414196303,0.8420585445634448,0.4231721390924458,0.5880656018516409,0.7021121505155056,0.007536022682973154,0.4986876275916745,0.6529154162434916,0.7404430733981643,0.5687296928676338,0.14079254086288284,0.941904717724715,0.09881671737149333,0.9963272757896657,0.7829436336691236,0.7534389059203986,0.87112403773554,0.5728175651982624,0.6193495451764237,0.6025255592744335,0.1414062395675746,0.48067818237096105,0.009634180990079289,0.5728134736077534,0.53329381471376,0.6531643868904558,0.6394165470305155,0.9623599485111191,0.7295459032403616,0.37106311232530564,0.769772797585046,0.9748240414975177,0.789749638737347,0.5840767748027078,0.5284278145991395,0.725509769425879,0.09941143249340179,0.6560611571607002,0.774987845038044,0.011932092114375847,0.7523615894455484,0.5986295654529474,0.5068721279889786,
0.567269921428808,0.4794728213161954,0.9049136708469088,0.574895167278476,0.4236124682096022,0.6727921592756737,0.3515689594143101,0.3901378305472494,0.634159247133623,0.9092344923278152,0.9028221418154401,0.03665843762656229,0.36681433532076013,0.08345542113794058,0.6264675109235891,0.7778729094925064,0.6764616523732715,0.7606467421155858,0.03179582584262863,0.4563336485490519,0.8135047297361745,0.6475990407376404,0.6802516339995448,0.7488682653744617,0.6876249029889245,0.02808531844890605,0.5699549424905347,0.9670539148485893,0.843811251930223,0.9109503241816194,0.364319058141789,0.38876166083415886,0.7847994865990489,0.8484671294462118,0.25016841259039757,0.710214011032476,0.3863352686887517,0.1987037479032161,0.9950209383808448,0.906251617570517,0.0035913963341593913,0.15641775712816097,0.9632540152500071,0.3653069381974411,0.5816677092020516,0.36623357793479117,0.42695932908099,0.3601800819662966,0.08855081292347189,0.315740307895213,0.9079547865280194,0.7205939696404696,0.35754875400527353,0.004096131988876595,0.5959359779881604,0.7321011727813028,0.29607664698334124,0.2665690011345486,0.9574978831948693,0.400823210439884,0.5798579670329996,0.9696135245270271,0.5448679704083287,0.16941440779250483,0.38677718268692274,0.2139549019880097,0.6938457388829167,0.6224810871195102,0.6212397038343271,0.9058228671910511,0.7720429317689794,0.010639587415241403,0.21333569677552744,0.06566512160141746,0.1949513856465669,0.3413398471632053,0.4583881589749841,0.44133949414139817,0.5886685373666252,0.22907725193202289,0.5065969693704231,0.4404586927932349,0.18885758443923495,0.5041187687792195,0.3967973925383944,0.7655538673002337,0.21161796568381974,0.19862369561895654,0.650721080497093,0.17628758876536843,0.929955385309684,0.17132236945259205,0.022941173415173877,0.4126720436987408,0.024498894542681615,0.10048258219197725,0.7055534795935321,0.23899719502846195,0.5381008680959699,0.8322013029405134,0.1364782534363963,0.35415148416619346,0.708119010993591,0.2781741136127056,0.24997590582261187,0.2752904639945831,0.8582758829558242,0.5848290743047511,0.17802825130767885,0.41314581007665374,0.3151526431456786,0.780526877341824,0.12651765496720813,0.13389096025152902,0.9714609448349636,0.6326527231238546,0.9775315564300443,0.634304788760201,0.16426666302767878,0.6641778945753465,0.5854966592814135,0.534487191386591,0.43928007266661595,0.057588746552705405,0.06870686894178102,0.2927984275452371,0.6327269130948614,0.1865946380932506,0.5802077194443046,0.8757047144376439,0.5548957247168094,0.21508734904905846,0.5497548497934973,0.16540905298537933,0.2323671456244386,0.4327849395105252,0.7115906526963879,0.41019248804694586,0.8724258372301241,0.2835525035800257,0.8638354462131537,0.0031944701979087498,0.7170495776143035,0.6877124739079261,0.1721592960462056,0.5122557151040898,0.08738262385982343,0.3331650441201194,0.4499243699610441,0.31568360382936134,0.7413179841518829,0.4910641953974223,0.18905018404337925,0.054942956479783533,0.12873907993949651,0.710269748264678,0.23032336460300373,0.5538385928211624,0.9458538006812005,0.18119860070923732,0.3336002904239369,0.0734386552526115,0.23594318013214388,0.9523936828299012,0.47289842994655806,0.6482614921561913,0.3124487317941721,0.3509973334825339,0.6806017360814874,0.3806068918015014,0.5060427378805541,0.6242901954357359,0.3169826342150832,0.6224802193108367,0.9520965608973916,0.8819750136718134,0.3451659353268408,0.6275415559967333,0.987401009969635,0.8205309316596148,0.456715839533992,0.7994949364531506,0.7458789350555407,0.5980310317339326,0.19923739671286245,0.7599843545514816,0.3987886103537712,0.03862873383440801,0.4493468141227064,0.06484010611396807,0.9391224272920267,0.4714581599623904,0.8787251057893289,0.9868024098696068,0.6348936476582244,0.32684651856907554,0.1860327577837534,0.14468977583409015,0.5818336197555466,0.4069695344795582,0.3048558125208033,0.49763230986405516,0.2635781909514038,0.9752375857368636,0.9950760278212315,0.7150911666243689,0.5675370712102406,0.3301075020809203,0.6707106248725883,0.47560061674738585,0.10453474382878347,0.7436678462526939,0.3027829403868304,0.8360932435800543,0.4201514811816931,0.927300791105161,0.5373404729229814,0.6920446679113039,0.5653571190948531,0.6631033724333051,0.34677503514934416,0.10890476846502062,0.21652034945482312,0.5092037051154927,0.3102029814546867,0.20867115607615605,0.777358122616072,0.3184679246255647,0.572105446317599,0.2822751340983749,0.4258138482555123,0.6984732651080984,0.5026229366463723,0.09675063441161302,0.5242403665502229,0.23761339528387126,0.3961286673594031,0.7832528312050239,0.708649534932247,0.6604528931383349,0.3159049240255012,0.5778159779117726,0.06984323228516987,0.8254289801630599,0.6206607212551916,0.8214966144655491,0.7198415088410286,0.585423450083821,0.08170967053184808,0.10585971229571334,0.20026309252061392,0.6939152430603612,0.8529767576347747,0.28858418444666656,0.1716514029490105,0.31601967149257515,0.34518130591512963,0.8390082949718357,0.9891947246198267,0.35517904677795753,0.45268136533085623,0.27938868803421324,0.5725141169542368,0.2733715543171207,0.054920583815419866,0.9643744122013214,0.3041986695203259,0.17636970016466413,0.9431744692915044,0.05999968255779764,0.4034192282464719,0.523581068401197,0.32805798586897084,0.33982391863386174,0.15770443943033774,0.4392529437746977,0.24148813131489988,0.1624085754141118,0.6337929430347077,0.8807405633972314,0.76005596937424,0.2464416861961961,0.12399016661686324,0.5306309070198364,0.7344938155685237,0.4446746803588335,0.8755351585373361,0.7654305785202653,0.1366835683802955,0.2803222053907404,0.1508240526619664,0.8808073152182555,0.7432346229349889,0.5925751011494881,0.4621579157254364,0.6294414107115781,0.2703252672133881,0.05915602386867713,0.8536044575229278,0.4531458733519719,0.8758100344497312,0.7051847623112331,0.7138206603765581,0.0463442851953384,0.29078525267304534,0.273696659867506,0.5814877375067451,0.6333128062186806,0.7067217153508473,0.534600973203666,0.34457129611790993,0.6284503575188579,0.5233443217429004,0.45535155262431726,0.2866307141243801,0.6982979203320344,0.1141406832237094,0.9163629680363526,0.9441381498887594,0.7467608188657007,0.18481025780075733,0.16924151420274525,0.47859596215332534,0.23803223573722732,0.4496023603751783,0.8236617901654975,0.1721157055631397,0.33839544324084114,0.15776474622651837,0.3069413972087326,0.7438607471060169,0.48065482002958004,0.7491356586431231,0.21078276091246562,0.015086218432952214,0.6898228292789802,0.12302771702737814,0.5536191404353622,0.7222694781728076,0.4577200723261293,0.4217544844159701,0.09792469486062894,0.35272155671689587,0.0738378500317971,0.6425121566009802,0.990318696560151,0.296075119117606,0.33259383159929556,0.10441148935575661,0.8433100038566396,0.36147360928032923,0.14444633559230946,0.9935527673635286,0.39353438212679925,0.26297745600696476,0.07593078124709474,0.5981886040348422,0.8456119017984761,0.3540373793042496,0.4198074502093855,0.0829899045098722,0.02296303222241114,0.012376458271864954,0.8052258045809494,0.7408100092169648,0.19485177923003716,0.7235570588149453,0.4518632352478591,0.5835452728190788,0.7091896653597364,0.9582358575960437,0.2777756175054673,0.5973696568302271,0.6026727509261826,0.5189354841854364,0.7222257415368918,0.180804457570663,0.9631341064116608,0.0033235384759949804,0.8059377846577157,0.43649558547834877,0.06713661417092176,0.20563807613013563,0.33294425821506657,0.8535462524038749,0.4888360422984036,0.46861444702324295,0.003992135312166134,0.2588511712352991,0.1557704374436526,0.9549733280419872,0.44806419824106325,0.507060043296886,0.841646988863697,0.9905519153096993,0.5823407708782821,0.1877964187783543,0.7791845695557934,0.283780858020958,0.10274253959316249,0.8513172292879628,0.5957799618907935,0.004869211236387949,0.9380054651893289,0.6387194394849448,0.8899144994326708,0.9382979060271536,0.9054923163957216,0.40658873336811396,0.5399927569721661,0.0017862661897625198,0.3568093693035792,0.5726010370171801,0.2511258169538988,0.6035974850150102,0.18025551445317323,0.14273251864430936,0.687232909158927,0.23666109856806972,0.18709554674109652,0.06281591304773015,0.5270357537265454,0.5018327649515386,0.46609039584492307,0.2155892993890557,0.21788491295731482,0.8657555345281867,0.06083121020168969,0.6160976994054136,0.7506886434586728,0.6995202292514785,0.0015111618745907718,0.016310096059207857,0.08656124469165238,0.12608454525011747,0.9815381498289738,0.7941769773561691,0.7458141813243909,0.935096735448895,0.4195327914000594,0.49962183078486666,0.7631044869537545,0.29464593101717884,0.09473275868843511,0.44229431414982157,0.1987808715493805,0.9140549093169587,0.1935631946645967,0.6077420555485867,0.9317163633174593,0.9236506706121211,0.8501993967741256,0.5897598228797952,0.5203432139624606,0.8754589557293799,0.9278197630647731,0.6754666758919988,0.6223439210242541,0.9970879312119542,0.9003291627952564,0.9951013244132711,0.12090991465756151,0.28786571985126386,0.9653559862050602,0.36013301916817353,0.045245496089293735,0.3541045235950847,0.9489399091377553,0.7662109507124157,0.022032852609957687,0.7607487445198031,0.09364743441892065,0.31432813764909295,0.357962900025118,0.7734982122860583,0.2592576370245393,0.25769215770703247,0.006786718896382493,0.08420242635856989,0.9437752124502654,0.6730585581979219,0.9179406903329896,0.007936149264400894,0.9206801875023966,0.15970238750538446,0.23039397966488073,0.7778447500295581,0.719096308734361,0.23846813941888356,0.7524130402447926,0.46818710497084604,0.4128308507054055,0.4185301630391025,0.4539673383197165,0.91085057779118,0.30432327184539876,0.6377820964083273,0.9691212106584789,0.5956534552402287,0.966991857492763,0.8078183825069738,0.8193142157254306,0.17163624174706915,0.6874754536228137,0.5853697081735058,0.36222009966276014,0.5829009113841893,0.8644619919356475,0.781298216249698,0.27600140351225366,0.047958180144598406,0.3459309945584853,0.9249316769426664,0.9745904475134867,0.31184199751431785,0.683046603431733,0.934131885201104,0.5815062543091315,0.9935325315268682,0.213112392600605,0.7296478201704732,0.12179493009957443,0.011851999767953258,0.018654138608198756,0.2258466717062685,0.49086679710861103,0.6983059641933307,0.8320731516813072,0.6775224563448471,0.6714666448075006,0.8368013541311371,0.45970500277684034,0.12679745994317237,0.8981956832746085,0.5463110381761459,0.5600634150875841,0.7249502757077958,0.5424876559161993,0.3899257204122153,0.3066226333443288,0.9164917817788651,0.40843315106882117,0.5007940064317976,0.09486099638361989,0.6962502476659947,0.41164192908199804,0.11063734362870215,0.25498217993513406,0.25455953380027696,0.7575263201112808,0.014630741717065243,0.6039683613000438,0.6113942993788615,0.9988105164436243,0.4423110537859847,0.35599341844473553,0.00841139996663498,0.8876976965080984,0.8027197035040249,0.41371490486491236,0.8454497162628047,0.5721031423973396,0.2743977657133272,0.435705491577261,0.49279328399796674,0.9407890033121341,0.3692736068094866,0.25546183523071875,0.8110614694384065,0.7377832854661778,0.5295326729599573,0.6023883319203376,0.9467427846574689,0.15848922070535665,0.7247506437420226,0.838518777136351,0.7456036950101032,0.6401267609204305,0.22321697395318274,0.7900430740050757,0.5795712799108163,0.6162236467211606,0.04715341933206174,0.05138503808482264,0.6799043342200629,0.011490238357739657,0.1760241118327367,0.6770887801934076,0.7063850531220653,0.029450830752996704,0.3165516892304405,0.46963777733259193,0.7958667273574254,0.10108865094442565,0.514881946055826,0.951713081710163,0.6889768921058954,0.1960118610194551,0.7834365296492475,0.602690935855047,0.06857624636350712,0.733674153220034,0.660286180222035,0.44566038249574136,0.32386764397546997,0.8893713929285054,0.4602225977966552,0.8037852984750473,0.9536033680182763,0.42967794418888183,0.7324768177513067,0.9080103811269057,0.8457132800889016,0.28862088654882456,0.5742874436752944,0.7335646343391531,0.2454538186963423,0.7875031562932826,0.6148119360986273,0.42764590951420145,0.17888545783493526,0.916422308856372,0.6550306741194989,0.2202232613982097,0.025442191914757717,0.5102985106146253,0.9073696209911448,0.9363040149253563,0.06944127558609259,0.47826532541027256,0.443345563659856,0.6179012990108855,0.7337474253962789,0.8205032462219722,0.00691208976450941,0.46252872116318744,0.03199913549149447,0.5516043274676213,0.7539261118465456,0.6757736297922843,0.5539864639806861,0.3860020034442496,0.012355079415706016,0.3942216233877681,0.6348908450699096,0.3038019143836558,0.945426463581174,0.8729678060418505,0.2240333944265872,0.35119275502946523,0.43444841742946116,0.6533122632127764,0.8137424360888235,0.20635351220247033,0.0072828619437630415,0.4196793046632993,0.8330098602042804,0.09174295041256475,0.9427499218498395,0.6340472358643888,0.7912496887249035,0.5632862342527394,0.16578673151752088,0.6641346487953562,0.5050738895783937,0.24699771663279124,0.4757415292248911,0.77237020764239,0.7548799876512057,0.6309586686607719,0.4006706490022979,0.8619128374990017,0.40956599240112723,0.2867906796067268,0.17698478926720396,0.5309062281283952,0.5378402133386129,0.0330149250435835,0.9773605306980371,0.1503821373837636,0.812980908045705,0.5729926945444069,0.6112442406466216,0.7380007477624477,0.18522501042746686,0.3599823359099267,0.8917518847957762,0.5198334647075425,0.11866553754370468,0.9968162119670967,0.5560553317624228,0.5048863520696683,0.18719777419719108,0.06785899467561196,0.3803948555146158,0.17355741573857086,0.1234622892158711,0.4209833162511002,0.3220602154030071,0.21548336527747736,0.6640114458396357,0.05160515957857126,0.2840771583608417,0.3821161498245308,0.5098166460194266,0.2748356168313324,0.5558316296739696,0.6450672420137027,0.39317811273723713,0.9732487583378591,0.13702863335620463,0.39411525029665073,0.41230951266559956,0.6593159596053324,0.5790606398975804,0.13615653151707519,0.006880129795495571,0.84440613260892,0.981593509223616,0.5437988048597322,0.7785067571244099,0.7800773099903325,0.13844969569393073,0.9112349200088339,0.3522961768810997,0.4451907385642111,0.17913701890203393,0.2328655594976764,0.1882511335569944,0.8131997224247034,0.7070832243274614,0.6344109072822454,0.557684195988763,0.47174398691623975,0.1410771509607176,0.5374029788132754,0.5241856361078227,0.6860297940795103,0.8317291439571075,0.5919979737287032,0.6447971648743154,0.13328500122299325,0.5013889425643611,0.022295361736839325,0.6516762817349083,0.1928592358192266,0.9487978919835443,0.9772472365115918,0.1652686989365687,0.6912045143993454,0.9263779522374778,0.3877793212329804,0.19406493378313394,0.4296299613484088,0.9728856131142085,0.6437564968341809,0.6589736836778841,0.5153433240190942,0.12163328960580666,0.7464717698873764,0.24164330299616954,0.026900233650964056,0.13801765152054823,0.8671813173522406,0.6951810626174658,0.049795051546870805,0.8954434062355585,0.9834724923202519,0.4530147716874653,0.5353534124923992,0.5495132540576217,0.9919849572014052,0.16039216080402052,0.7805675525369244,0.13852759538971005,0.46185571120724145,0.08032205752343846,0.22939051311616754,0.4361094871999692,0.5389183612328124,0.5874139465654299,0.11263835201383698,0.379050661186504,0.10430642088944986,0.8863084693553146,0.6787213032275965,0.5673881596993595,0.10055088292096115,0.019145077975064817,0.8972725770625659,0.46478422126803587,0.8572451691318521,0.3568870551449914,0.18784959400754242,0.9537282675557206,0.3181938446319844,0.047306843778679775,0.30331367462833136,0.061606416554996324,0.18622583490001976,0.6172400088137516,0.6880011051175439,0.9871776353798885,0.7895688010385353,0.6951775394934575,0.8794233371773849,0.0277253207815229,0.15042332729191932,0.21366740347742785,0.8477417161320197,0.6872346653701938,0.29711950581815527,0.6679871616214426,0.7545896930437862,0.5397027981447791,0.37146000085119923,0.9437975591482498,0.2262626329233689,0.5080307272602425,0.4889511575449249,0.8995454269057639,0.46251964495123765,0.5596339223270873,0.6377837048132731,0.8718080676014578,0.31581988426533936,0.8242366636556574,0.6826792057697083,0.9829492575625796,0.4790148540607707,0.7276170152696422,0.6512602788940292,0.08579311616941565,0.0429807651297589,0.16151775347043784,0.9361506221498694,0.8016002221069701,0.9753925820916239,0.8593892182512751,0.37176569659191694,0.7226347811734292,0.3244191780378902,0.38252690576994375,0.4468666532803395,0.788533320977125,0.09942304898970822,0.02360397894467381,0.7900972010860445,0.2924890634308337,0.684638913973666,0.6763144639451476,0.13400725914725786,0.05511601100691299,0.1920593011618883,0.1303693428575401,0.46408464393637383,0.1847603057870072,0.511189598407397,0.6845645414433728,0.6650758945547831,0.8233881206826097,0.6917955650063711,0.8364137941329443,0.9502397095549691,0.09902489992573005,0.08304540191380294,0.9690635313485225,0.05014872995570574,0.2801956638980181,0.5648497062253695,0.9527141948421133,0.801063545999778,0.8939739142937052,0.29646711704543505,0.24633222478623984,0.9527664206564053,0.5538264089239711,0.020463561477389147,0.6325699284987338,0.5888371164395286,0.31326419836913233,0.01922535613437748,0.707254983489099,0.5106318162177264,0.20931560995673681,0.9961370778626221,0.44025672009221006,0.8168679100638098,0.5463188613236168,0.3336728205824978,0.15766762501789844,0.10322665502030248,0.30467205473498316,0.9528545599660139,0.9555365531780223,0.2950488256492041,0.7163915529670628,0.050201542099476804,0.5245509869094784,0.2334762191872951,0.8645913879359834,0.8291110311282122,0.2620166738030635,0.9480426710087407,0.9878905541013165,0.01768548022450811,0.9166493414086413,0.7919917340973237,0.602602203497728,0.12160714575267195,0.8589493943221489,0.599394979210898,0.537161883048057,0.1081465317792697,0.20527070594832164,0.7889979213534483,0.0697846414064478,0.2777933645614242,0.25468861194036896,0.3463770483402473,0.7048362750601116,0.49851094753322234,0.11761579352593898,0.99419433210621,0.015365369131658535,0.5679258350365497,0.11181074788552281,0.27205468911778097,0.5796160304915928,0.038067532340970156,0.08840083726674952,0.6084698844283694,0.543676825151332,0.5077824231383983,0.12935383722303906,0.429499425196893,0.780962325132749,0.5271890244220833,0.40506840504179065,0.17095324909350573,0.21388833982289657,0.3494244187242177,0.7583455940560915,0.4106944636844242,0.47942186098047035,0.13192071110203696,0.7373124700204358,0.9220007743678631,0.09670279012484839,0.9664249578185438,0.10461578582578512,0.052734967343130545,0.2747338920163742,0.0954025624820215,0.4332367272244192,0.6968898048637049,0.27093923835939104,0.2729589749323311,0.9555560307134736,0.4873271286158001,0.9332453554596616,0.42262816527012403,0.2978861255043591,0.8200319973821392,0.25993699498276623,0.4396848080327145,0.8715728075662669,0.6600700821404264,0.35433293956517864,0.9073243430454084,0.2644202099534917,0.19186829503266767,0.6089211817912121,0.7766051057878283,0.9285523575036044,0.8035459962534409,0.44450473138441515,0.7797018811307154,0.06366411289884377,0.19604243047415792,0.4512656655574947,0.5683340647242761,0.4088929035342671,0.15720350564107832,0.11367815871683096,0.6463279289897194,0.7529657574235341,0.49476966232529695,0.633727522700332,0.24586174389067694,0.7985546075088489,0.1487363220604737,0.49917224833653573,0.6992787360453799,0.9627458872358572,0.8097606121295516,0.9487007890203554,0.2523870138602814,0.8102658020548548,0.014689120626806607,0.3055662147045889,0.43704456567175176,0.6389838075712068,0.9685252361960993,0.6422816954171663,0.6625069936075096,0.5996088612608941,0.980316166631652,0.3343817577090663,0.7771915654291582,0.6538667015179626,0.173200740365143,0.45867006972177415,0.1852905242617321,0.6550683383590011,0.45851598655352366,0.6749648513407074,0.41584352698148785,0.7687334283771077,0.6202553114336926,0.9830650479323756,0.9536656634547912,0.31013803004403184,0.38285408825472245,0.5671429259816992,0.41819731392091586,0.9246143982675679,0.4517748829541205,0.2198976022956164,0.6685471006339397,0.049718007830429456,0.7360871094712053,0.34300136527571934,0.2319392433333124,0.14314817778659017,0.19820132106253785,0.5441698412534838,0.7432299034378053,0.2365356149814013,0.7196307457542485,0.35942011595954104,0.6968853961747347,0.6831926059892052,0.6134999945546938,0.14430588413241852,0.1266166805859651,0.9664872246945454,0.60317468206652,0.8687944283204971,0.9943237199673759,0.3525202363639036,0.07904970727188876,0.4884509023403918,0.5290764849144083,0.6588648650399838,0.3692894309019754,0.6211657281264046,0.6159683730632977,0.14615724298077504,0.5701887086890959,0.3046171241952841,0.9780697275589509,0.8684265771082568,0.8648446419860468,0.9678415905516984,0.753236420498707,0.45253082547287726,0.7147678404290722,0.5766503272193879,0.8512845104788895,0.9245207698667994,0.5984370316163466,0.4088431978647199,0.8202639088435761,0.5667708720763999,0.5824805105962864,0.3624347964719451,0.3055510637708696,0.13215614906009632,0.21381939083527424,0.33421688009541417,0.2027341220162554,0.9829578357426789,0.8370537572576604,0.5843276971817964,0.830763789563966,0.9719444448330379,0.7866089674920257,0.22325785692505695,0.1971774730122342,0.824555960233449,0.8125312574519183,0.651541891327926,0.258455301093106,0.1422248524450075,0.4875186065123971,0.962797485380849,0.7211799316442433,0.5050157824058218,0.5291691746753081,0.4248198578114578,0.8576093451767784,0.6893356302460174,0.597613772923535,0.8853294176855582,0.44966350714709113,0.5308591159417327,0.5536942418105718,0.3537400255278773,0.09499710239083647,0.1266116245018879,0.8927093257939633,0.26106179048482003,0.8150604318879071,0.002078468606736217,0.14645457015311936,0.10665648092312263,0.07898057683359516,0.3337980068255709,0.3009264959979665,0.7016533421741108,0.35180400379508825,0.6019670293015292,0.08310476666355138,0.09497425762386946,0.14152627253955608,0.072911838685916,0.6518765419136261,0.1580640580248044,0.8979418183053917,0.7688898166819014,0.6506951514779942,0.16337388787510887,0.1607179693868559,0.285568010568381,0.7719835158898395,0.7293119537600588,0.4092106368302534,0.9383303886716452,0.41580666215966644,0.11837809459548032,0.016923329428310874,0.33002488178747247,0.7480219114820473,0.2911112734684387,0.11929575286848915,0.30234620460833084,0.247361012495516,0.11737670653052135,0.7537143139139358,0.110428918375018,0.9937337825313878,0.5305185157261774,0.7135007069254803,0.27517163055209903,0.27386777873888235,0.7113683137835236,0.736679308748145,0.005223224356738165,0.9013896186811752,0.8754176993911543,0.9386083281203967,0.15293132580498492,0.18887068662641282,0.889756280226505,0.3352712841866694,0.6293811646877512,0.6532139180742892,0.6986132397086512,0.26036038709781406,0.6826405457930594,0.2479557082510102,0.1244138533693685,0.6345697135168749,0.13848077154927863,0.3683098254844215,0.7266692584285888,0.8557998724043,0.44711403952759965,0.5519923990971907,0.03041238057557505,0.37463767205558407,0.6801989813836585,0.40980235052190117,0.8956046888860507,0.9002938652080635,0.6028255070271596,0.8371254015590764,0.2570985446797984,0.4497068436005045,0.8514746793748889,0.40486695743410694,0.32064328432339917,0.2841530876404791,0.831715816898041,0.9337775323543906,0.611661498773268,0.8598011069456087,0.14090142968684416,0.8622920657905009,0.5702059698000563,0.6493415303008911,0.5462491698505153,0.422766121350151,0.1967053197637344,0.2948245373559526,0.8394625833735242,0.34427553598236205,0.9714104442754513,0.18865325565336144,0.27078398360461997,0.1395748498721141,0.007741074561455119,0.6077825583493196,0.132968578776828,0.7624513753063829,0.5468533290305325,0.5052771682399788,0.6304808285364053,0.8312266796630386,0.6757857082676506,0.8029375187165914,0.7796938250700183,0.7389339348396802,0.8715105661499842,0.09045443036517897,0.10361955219752705,0.45375776252266353,0.5147995300217935,0.9518340144460395,0.7316051953489279,0.660333435583834,0.7507418053027939,0.028602372981763824,0.2896069140504953,0.6526838339482117,0.12770416422467934,0.27074550918676754,0.34731827858853415,0.12425101372850622,0.0771066035989213,0.831044671740559,0.6637260674779282,0.9634730500717347,0.41950777638527925,0.4627699726064579,0.6378619821206826,0.27826044672672146,0.2793106602854546,0.23520882016534872,0.9606953412731561,0.6617346818980617,0.2126252066738621,0.3949844522209315,0.3582325887373644,0.9836797333412313,0.21892358940151158,0.7404914533737298,0.41995243025432716,0.46438425887245416,0.9244772596259072,0.007355677798478122,0.596969862011675,0.6655490529597707,0.4909970767344126,0.09918066613316057,0.29837682226540596,0.4926524017317807,0.7637884941494434,0.0971111130842659,0.026803906031663383,0.9609919410414117,0.6633898699812638,0.2556429868235799,0.8799317891310761,0.7843492888881247,0.1377561082188551,0.6270971798060562,0.42456460167599275,0.5857907845209057,0.6085907490809286,0.5608802462550979,0.20621026313214696,0.7212827600413092,0.7602881768956603,0.8944526583550862,0.26181663960630963,0.3370873685174387,0.18583154631612742,0.6163018615208248,0.4520613623611276,0.23511496509848373,0.8305995811371139,0.8591725318297772,0.1394419163229007,0.7377022250050718,0.281389304878666,0.06892661614981777,0.882895860486653,0.6424139067135369,0.25088908562072754,0.7826755346902617,0.4081767405878328,0.6232148320246456,0.2371397168092635,0.12179262974122029,0.22215908600652734,0.994826310196871,0.8049506356770049,0.6732849734240367,0.05512595711687629,0.9697727153403969,0.14743991323986083,0.14949953096555313,0.3355038405351587,0.5245674256044868,0.4529143785067249,0.8679960679009127,0.636650178710432,0.8814946390737677,0.5248374617740253,0.7445579153134995,0.33458612529904175,0.8449936007483394,0.9450537931306383,0.27832600650093486,0.08057922519330418,0.3033661876583167,0.48211687122065383,0.7752402051062037,0.10616687099053868,0.1230868983370873,0.30891443059710266,0.08875659841290684,0.6316799881579174,0.5375534300275936,0.8535177551056317,0.7785488584118766,0.4016176840758683,0.022835547615495666,0.2244714222322175,0.18720032112125295,0.9088961784891618,0.25129024953255863,0.0751624047611239,0.7430109595036514,0.5016672038526615,0.5199783638655614,0.42701496431789265,0.43187504430068024,0.4865472508026235,0.4545093595075719,0.19138998420229614,0.09315552466212973,0.7175539030728771,0.3355326680071056,0.18915438277137464,0.9610602121746615,0.5581470130912831,0.5855283024910154,0.6378330431039987,0.5929377514330944,0.6829434824274637,0.9382921035343361,0.1910092588035609,0.19967752680191508,0.2138714492880326,0.5326139638655798,0.40898970046876215,0.42430500027340934,0.49867396523151686,0.16333813017232934,0.42516784702625654,0.4271789689941464,0.7606973541287365,0.19936962577219852,0.014381837623826055,0.7238804466952862,0.3994817573475177,0.2627169388956171,0.17626527261261093,0.2280561520586274,0.240982188271618,0.06594203390744191,0.8640766180236726,0.5505851643576231,0.0437647058684556,0.8962022412305352,0.9557719219815461,0.4667571690305745,0.9557805108202759,0.210446033634465,0.12461413157851364,0.48348780574648986,0.267205359746609,0.9833156485147839,0.9202819229605708,0.021695555774863706,0.05040017002969044,0.21913034368518336,0.5505466992771336,0.9555686079889965,0.8121352229599005,0.5372013806679882,0.6314405181418212,0.6107657345553072,0.6907538347140603,0.5282122957104838,0.18151000114655713,0.8801326681769261,0.6951760224672842,0.4246038259851238,0.7927524695140543,0.05618612805536938,0.4106206726498175,0.5790135766879831,0.2617495093396899,0.935654183955572,0.5788263652327096,0.9122623006178653,0.6233151384966764,0.6787088989725639,0.4872428574664168,0.8194968008741408,0.43227267201487485,0.0727636549817724,0.007940093339283583,0.3775323416023987,0.7569216792936259,0.8273299236091244,0.13078306017254415,0.005407986138840748,0.5575305952399869,0.590281785966928,0.2640633542907712,0.05024272980913991,0.08399776413679372,0.2424302376957289,0.6167112427986969,0.8630839804981719,0.38859963626683836,0.6234753882019277,0.32325436986705225,0.6899069855099749,0.50694175946276,0.11314440728082509,0.3741618048813703,0.033894433984412164,0.07412514134915171,0.5770350433791213,0.6604158552177206,0.8245728747686157,0.6138313078964361,0.78449198194241,0.36199750077476467,0.6087310564828853,0.45958992764688555,0.6320112010658447,0.7574369727706998,0.06292851959940726,0.04228060791779131,0.45728424139250257,0.634153009247747,0.26125114279233286,0.9324094533467675,0.6885861756156846,0.4091006001356481,0.21943847386122528,0.5667676693664143,0.6877759723452022,0.3809267954654959,0.36184942809842136,0.373349939008746,0.08536078737648489,0.6165653207736138,0.9344150551715683,0.8742582394101288,0.5614946218930611,0.7081067056008259,0.2107890775548854,0.6759839399681863,0.16703902800447656,0.9092885038053368,0.825472173202977,0.9961263751420489,0.41177148122799623,0.2877549338662365,0.5829984674458321,0.6669419078981178,0.08097565267446638,0.0469232785630368,0.864221940341966,0.5247605328788121,0.3903219617591792,0.42186542901825563,0.9996025656458926,0.4674388585737108,0.32443548724372584,0.564444696062289,0.4000118171072433,
0.0586475227054698,0.95104584220697,0.8274123639662658,0.98038259663368,0.12008168701068322,0.8491826906823883,0.2695294178100611,0.8325460651333596,0.6879609378147264,0.20847805088047333,0.482457349521742,0.1284924296747283,0.18609807266835376,0.1642160758347886,0.9634015808938599,0.3311819263430986,0.2637987677466118,0.5951956193932487,0.3174397681161294,0.5668323824786631,0.42850879383294704,0.6975134397093302,0.814260393830149,0.43616286634383084,0.855441643469186,0.05464428527838927,0.6412356092944556,0.9739747635386737,0.7210799164283793,0.2261916263740631,0.8997144112877746,0.6849799037900919,0.02134284955105914,0.13338081559360315,0.5523577445644458,0.9202034522896341,0.7037951250842347,0.6311363273652772,0.28280342795483004,0.3525620399163164,0.27403731498536366,0.6275850631223796,0.42809498917701516,0.272636360608532,0.8411085180399522,0.24129386660535757,0.6986276680912235,0.34925656897482693,0.9048748029138471,0.5565970895880167,0.9653627854494277,0.9473149560293868,0.17362169591380316,0.8524956855933307,0.4012275989055085,0.9462127344839452,0.6618645439129515,0.5162268953189975,0.5472962200333416,0.6544910219777539,0.24517265049521508,0.8671482597569854,0.10902552688487122,0.1450779323343292,0.47592001272655804,0.7819425300984746,0.6344361434857834,0.5154315116422648,0.5402954959984386,0.8394249246401212,0.6648325360850209,0.49521986912413585,0.8644449912256348,0.7099689344588967,0.8589341227780237,0.36217704909943904,0.43509060623739293,0.09132379597032758,0.5408029471730276,0.35857201907080916,0.59388408772135,0.16726572694020847,0.7222876038084827,0.4898023781871579,0.4961581991983992,0.7378369774907175,0.791929054997024,0.24751588797147694,0.16231846780638892,0.21797992941979538,0.37184245341296707,0.15658986535370423,0.13101207694824513,0.20523456997453782,0.2481693250525483,0.8971362376770493,0.32960110793062436,0.0137779717736084,0.5626364629895692,0.07008871120536442,0.08268974435369036,0.235354390085174,0.9893938851114744,0.6216763524171727,0.4029093952644467,0.1274063993521144,0.643422704596994,0.09054139919210924,0.5480981701985439,0.3819098298601291,0.32075603739236214,0.301309987399051,0.2133206620187308,0.8145151068941887,0.8245760895289292,0.32562886418230297,0.13446967701491574,0.9259135988680838,0.6433168223530458,0.796661557430511,0.7998606790240171,0.19836792946603843,0.7880702922478439,0.4237912713200407,0.8134570816316667,0.6843448891500796,0.8003083255548537,0.9771059176053195,0.24961570718596082,0.6153214821712506,0.47788211252507995,0.2717192499671436,0.7370976748504944,0.2953593844007929,0.2628232559014767,0.6492928679641259,0.664844643444135,0.21356766132106242,0.792574179138091,0.2187572713040581,0.4562347713178029,0.8410405082167248,0.613353700179476,0.5867672076256385,0.4309805589133743,0.6266959473331586,0.05640043583837706,0.6624350676918196,0.2384765388454042,0.370678146727494,0.5503712557903302,0.4358012035083819,0.07024879405300033,0.0007113772389083506,0.41912298116279145,0.2604115953349444,0.9357020059422481,0.4333828390208465,0.6773607143711634,0.5438404765250641,0.8708942500515072,0.4464356460876322,0.43517106786152326,0.04681574720551285,0.256426800777937,0.49307387063893515,0.6959699647299117,0.21498559369936776,0.8530979292905047,0.6103789688921961,0.7466968787336205,0.5029944017279606,0.8608988732382447,0.5898025906373664,0.5785041850283469,0.6340140941563878,0.06173823954940716,0.2872764513050492,0.164164677092422,0.7930397485309382,0.2856193470756295,0.6425987563135498,0.10886859899396062,0.8986031514753172,0.4771570418077157,0.877604129804637,0.1647882869521985,0.11002204307363539,0.3818215433109968,0.6159946366102751,0.09168297031493189,0.12349070491409209,0.18735776625237244,0.630338782939927,0.17291647379792185,0.224104637140233,0.9055843405746581,0.9053570622057332,0.23297113234340372,0.7580267674568836,0.5319167231132864,0.7659852710150022,0.4873978415105076,0.3879526179542936,0.827561442717419,0.04055212022066046,0.4235238393817422,0.1573173389091319,0.21668058834240744,0.20813500550645836,0.5282201926164346,0.016263876129208654,0.0540062835885865,0.9870208525308607,0.6306591036672469,0.30292270586878045,0.6562638875028425,0.4058272661237009,0.6347274279951424,0.4105893280787577,0.667530895361565,0.39427467105208125,0.5169684264245589,0.8604370281428263,0.1571950801964086,0.3685455871279414,0.8199126554576659,0.6761217465231557,0.6137495439097311,0.7171211875575864,0.08861227651492332,0.7982244674588109,0.5351821438596472,0.9900007405409535,0.46418240789735066,0.02829571001340836,0.450965134659854,0.027111284558209214,0.5430996265837108,0.7040380569890091,0.8850389675250803,0.028960919948995523,0.039905434417669694,0.6394094158087775,0.6874977412304712,0.49492782142112324,0.35271106971926736,0.4726153178959711,0.7555656423467945,0.33345713998598425,0.22746431578031778,0.8477028189497224,0.42200950210607235,0.2750486694555473,0.10744699553614778,0.41032717188699963,0.7190004319580339,0.22238061029203016,0.45816938611022495,0.8330962163378232,0.06529928387014183,0.6890375690889234,0.05336881757897083,0.691520613862546,0.6259565027938616,0.5159691924862483,0.03301667355442861,0.12439504748075791,0.6171147401555407,0.289307472961454,0.42293810999974457,0.44805563294813755,0.8048648616757175,0.08197674101709118,0.8400118284160073,0.008466686324942518,0.6932608235810951,0.47504135239014744,0.4411249722342463,0.9732683393145241,0.08445143973467562,0.2408183096905615,0.9399433218877216,0.18163385731896875,0.788202049595788,0.6878998792645589,0.9558693106930222,0.6559799623814161,0.9375874196784818,0.5364366426188025,0.6282418278137762,0.05185240402186431,0.7944959560159885,0.006220943137087653,0.001100967702739708,0.24294306855538428,0.534784061619389,0.5247791395846412,0.9903586000618962,0.2663269705993644,0.2868843998960109,0.4237894802360771,0.0006239515585600985,0.9776707919848694,0.4570875851112226,0.7246384988144832,0.7678208957283295,0.28833989804124904,0.48543732993093514,0.9161824024357409,0.5400411939968155,0.3386753239795206,0.6761632261854232,0.6862809878475269,0.4326314587563804,0.4835209919343031,0.6868397297920856,0.8553262349825973,0.26805523093953343,0.880032383878934,0.6774983967360703,0.8893582679976136,0.18000943610346787,0.4760695239219146,0.10402503864894319,0.6658190012094041,0.9409243771341284,0.2616674012878011,0.6887965051875466,0.34787063392795026,0.7626446009830877,0.6221067121771675,0.3125585478805758,0.14205485683239227,0.5606310169570929,0.7031668783034057,0.47453598837051325,0.5205726203342445,0.3900586257466059,0.6724120100404025,0.08070878599859588,0.7589633005601097,0.9675563634457195,0.5402335444615347,0.6240379132368622,0.13461492728558633,0.8555704429691522,0.4170011280460568,0.6989368952169174,0.7268493683503409,0.9694548735139202,0.7777979229935862,0.48795786537637853,0.9920396522111865,0.7835729800818458,0.19659709216893118,0.30579418285469595,0.34083226690324187,0.061632936515369274,0.012105450204532908,0.9390596853795578,0.2672015766989283,0.32909455568284474,0.9596332503331721,0.8460906749724539,0.5550931710331395,0.4694890653244552,0.3420671953505765,0.7491131212163058,0.22886568465777402,0.7271764823135932,0.4625705157309098,0.5116090802196875,0.05033678720827095,0.7011156427095158,0.3818853472498974,0.06137753775455612,0.8457828006034693,0.8426709356256631,0.25445271705445993,0.8210845269977884,0.6319585492616949,0.272707421763589,0.6767127862229646,0.4345424892222799,0.1852302213627134,0.605604277854696,0.19567752019145657,0.40137787423800897,0.14384956643484292,0.2837106212204028,0.6914166895185617,0.10092212759064212,0.07423147450366396,0.9682433233309864,0.582097398612759,0.9146423330236703,0.913929311724545,0.62506406748374,0.84649107303079,0.2652003831929085,0.8044434171962576,0.016233253845204687,0.9107364099734301,0.11774574265103865,0.29272837103274485,0.08890840540349065,0.08849497929511163,0.4259126728767384,0.6545086352446905,0.8981874020139573,0.8263468473734931,0.19499961516910225,0.4741027001021699,0.17270159849010658,0.7615425843070324,0.8611241704813092,0.4198702157565388,0.009040906557815753,0.6747782052236634,0.2591784765583688,0.6662940135336715,0.015426330423014334,0.6836120183960994,0.304620009287898,0.8549358001102825,0.31140408801789643,0.891265808620425,0.4942490805524621,0.4955420037977757,0.7200397748444121,0.7126476077421897,0.3336076234829265,0.3783931853941539,0.39751250168288144,0.38920397394381456,0.36919251888030546,0.06389818863328145,0.1082195123141606,0.36287424541300717,0.9036769757607728,0.803491408182417,0.5510955594870898,0.000460384824028659,0.0566681151051418,0.31831414102419253,0.3523039210427702,0.28251922562664045,0.11718198972881022,0.016580366746437702,0.19515473771021719,0.8802235176515238,0.3486254982114563,0.26469610094377694,0.8461212110751009,0.4300020323407381,0.8550133415036185,0.4787521333009108,0.030021787517203746,0.3581520538046489,0.4670175585616815,0.37135185981686913,0.8111022179502055,0.01581610098178443,0.34093951548487356,0.8985492685064975,0.9500676903104309,0.128779733032238,0.7172453115703011,0.1962996214532109,0.2722881188592702,0.39782421080051455,0.12420333241992665,0.9833556350712769,0.41123488959020205,0.0706658379440982,0.9087912188446251,0.1307093935173218,0.48147494131363167,0.5666493108831323,0.06827178551265367,0.6040219959735051,0.7978707414314729,0.47427852788492597,0.5192944990960188,0.48555935169013187,0.6866284520246124,0.21599337350216974,0.6196675695011801,0.6392118763508504,0.8733348921525816,0.5630916897416843,0.440092463744453,0.9249254148777261,0.8193020680651406,0.7926763885307407,0.15027548468863205,0.9922809415252261,0.07628627804731902,0.20067609688585308,0.11113997796802544,0.8663679745396107,0.6436650822283015,0.3184740918422,0.1965926145482132,0.3599168308321893,0.17334880149896637,0.3100600390771132,0.94409450683104,0.23431149172863497,0.7181719556653741,0.21688315163518046,0.02407099593368167,0.839951560409108,0.4032975919323485,0.5245022963929477,0.36443910458144924,0.9017612916116846,0.21681996775602397,0.03595894648703635,0.1267370686095236,0.4876513466479474,0.3266127648623436,0.719858985898526,0.7819933027308746,0.8107701179361645,0.04387817036080721,0.42649888763611077,0.8843652382292236,0.7979677931918291,0.03665856490558994,0.16322677361447135,0.3031274058615834,0.9249649003427034,0.2534154653104772,0.5125244926307907,0.3197797182725586,0.06942885501812457,0.5154464083961645,0.9384818820979117,0.11146148106551956,0.34918754381810346,0.6604033909009889,0.7425353526769328,0.6055391913594276,0.00647632157046818,0.6673544970749061,0.26455958461200246,0.2986249761366182,0.6712787988779493,0.024395163302090572,0.31618594125099375,0.17424805358855378,0.10403759757081199,0.008284627617262785,0.20164148646724767,0.014911438643077757,0.8940207414543453,0.5902342070499987,0.5315110116215918,0.9701106860945975,0.2020989346757116,0.4518940058889407,0.5948949373194654,0.5235748048311246,0.42529316552078167,0.8325327075280055,0.9286438941600058,0.06983622139180479,0.580015141743866,0.9001538385962831,0.24630553340571526,0.4578116049353128,0.7802871661104777,0.37693874694067586,0.27166655144090834,0.2230708149964521,0.5233202162187722,0.2262465619930054,0.3527968649950932,0.9137363241436365,0.2634065395110472,0.981469541500328,0.4903677260022844,0.5781066783450551,0.5609014705198285,0.07945774626215185,0.3387965359472299,0.1902436213504627,0.2761140754040883,0.8042527323389611,0.7155536294439117,0.6474423775352697,0.8812341136207035,0.6076067153341517,0.8808376604145461,0.9188807906560362,0.6918671243392309,0.04688588277243122,0.0017266048825843594,0.4490637804067191,0.038454356959444214,0.4800973054576745,0.9712765957839165,0.2445239524314725,0.17722995548311904,0.8917572420408175,0.4773083982740526,0.6603649881426161,0.5633632108990754,0.9580171879967144,0.9446483518498234,0.26210583648469454,0.291691443128444,0.6370303694314935,0.5757026140550806,0.44310875599518396,0.9590110462443244,0.6207975220995505,0.25081277288313053,0.5655734446326801,0.7049644697702376,0.5582744992720468,0.12967189999094986,0.7533436910367611,0.23372364886083286,0.8998089609482298,0.7478085809105395,0.3863372322625057,0.2294299818590667,0.4254168811705141,0.4949840961904217,0.010083527866900699,0.8935320815179901,0.6129393556577738,0.16383925274025923,0.8372333161978893,0.05967907213586876,0.6169659772283234,0.8090136807013211,0.9208963117158567,0.7414585014595135,0.876870135454291,0.8866965880391259,0.8772602222895605,0.2034502007292992,0.7181251572050427,0.19866339637536579,0.4325947636335674,0.3926999571783881,0.6601205295568634,0.469904182983814,0.7315699896384714,0.8973574805092734,0.559739569024137,0.46185643423280487,0.17294714137681477,0.9453670519753838,0.7115226831922095,0.5813650104658085,0.12850044877351263,0.9335512441266487,0.2046535736565005,0.6162155453426033,0.05368307234100822,0.7970471908936488,0.9564624928130394,0.11771921537407481,0.8561555429118015,0.9055329283171039,0.48791158133833223,0.6940079805186684,0.5266862519714544,0.11447167604583863,0.582772943353904,0.12119535331887088,0.9760780025110269,0.7153393250708252,0.07524111988176951,0.9209117579883487,0.21826253193834266,0.1814152617500654,0.5824400603422327,0.8404427860745003,0.2566706036532648,0.49160407548628193,0.2923074159653445,0.17989525220315006,0.7716484163084548,0.15597237087535742,0.5447956658269472,0.13286081704850194,0.5380508060527168,0.4709473301660737,0.02404926267960572,0.36401026411471693,0.5248292021068329,0.5868077849162202,0.09208207840287919,0.12344538334504473,0.6921126564059213,0.04216650905339703,0.789673754546517,0.48790895631948317,0.2381028524311266,0.9669895712529162,0.6513530676493566,0.7633207117724363,0.05174975275740157,0.8865163523887459,0.34997680733200076,0.4630761803440989,0.7540517446025857,0.9263939084752938,0.5311342284580549,0.14815058538372727,0.640116400607872,0.7756491502009683,0.28068732302401145,0.1427132532423725,0.619156147087493,0.08543417465317948,0.7472463081334788,0.3077377079785141,0.7735719594376758,0.20149312720732282,0.9682273198692114,0.005129760198955502,0.10389460633476111,0.841083406720078,0.2046458362083966,0.22764052763021447,0.8132182745102539,0.8875145826548305,0.18237123515603515,0.37098022996463864,0.7391765439029477,0.27771958783282613,0.3660337710205216,0.9521312460082575,0.7010151309960226,0.1367238482062333,0.2830655122323138,0.02823321670465484,0.6010450721745878,0.4778844047510248,0.2553468068423894,0.4676854309789752,0.5931375172675798,0.18275280732493548,0.4355417748252771,0.6069882224790898,0.34225020990745014,0.6541358915863541,0.8182744033526216,0.2749004429118389,0.5591157770773575,0.5587390066830574,0.16284777627788538,0.03868173441766476,0.648138146031247,0.8860111272001442,0.5836801243549689,0.11995691317144153,0.4377175298554391,0.9732885486844689,0.9310353529974527,0.2210826246499049,0.5891097114983052,0.3509906405253982,0.5095444760406347,0.9391169427333621,0.6599462782636947,0.6944995518948154,0.2893768980241258,0.7879556204060507,0.33761116594926877,0.0031078330157644496,0.3564655718100743,0.2887013364551222,0.3542701178455627,0.18106641763551257,0.8313470252822545,0.5583410936398461,0.34903761793631605,0.6586314342485641,0.14709356206610757,0.7494580764305163,0.10731618973668278,0.9268521085645789,0.7894670581638464,0.9925280463787782,0.5076874837085595,0.5217388143542635,0.21198869264747788,0.31697013451250233,0.7354737438639768,0.9728371085701311,0.8020890246050006,0.4383419646175486,0.37560923020881487,0.2006906942947121,0.37762136075313624,0.3466321649618116,0.4111011895891068,0.9746293906560809,0.10659485394107471,0.02903545917486361,0.7663702212937491,0.25116758693775576,0.5872668438043822,0.41935704065821533,0.9536754079604558,0.9942029689663483,0.7537184897157342,0.3135527235626947,0.5887028833415181,0.4587122299898615,0.10213161988485786,0.37004286601306446,0.5433012737538679,0.3007673959916477,0.33149598250493595,0.7505746809268261,0.026297240031582292,0.21405377174714402,0.11695907166194519,0.870161961825413,0.9054027094020944,0.921178655153816,0.404900978020475,0.9408753312989473,0.26638249940670466,0.7270118617654738,0.09186686625365137,0.8121518637303976,0.33362918545780873,0.7777998341954996,0.39430769845720326,0.3310685322248349,0.9571097690230084,0.6126358569537026,0.7175321650365116,0.3166932414741668,0.43329772859674165,0.4248639508818187,0.8647616718497622,0.5577507816506283,0.7644730494907345,0.1695956967472373,0.9391535527390621,0.8014682816805301,0.4670838933080914,0.12586676588902757,0.839918790894213,0.3184293502571258,0.415246527467804,0.9600616292819885,0.16821333297391106,0.5326493525258326,0.454015713864808,0.11821526979303854,0.695080767726086,0.8995528816823718,0.30151140065798665,0.3119595980060902,0.7432451986565142,0.6631646126257804,0.4141142020252321,0.16515642729820845,0.28739377597497284,0.5391706121993024,0.10609078995057453,0.18435614373655385,0.5617206865533694,0.11247513803499942,0.01385601837063688,0.9464926044888458,0.8680549732835736,0.6915620246747519,0.38235739832644566,0.2997408379848391,0.6231993345826847,0.12230404203655931,0.8481624358471697,0.8549757065545236,0.543404320792634,0.165727401555119,0.7530987702201815,0.5419181988136623,0.3106495062290202,0.7899484183557982,0.4656976820583377,0.11711334554578345,0.8419353896663391,0.8640052146029962,0.15114209190734174,0.5730627418405378,0.7653640598376734,0.8608292835795289,0.3587048470556027,0.9120812151329557,0.5856897793975908,0.8047950363128944,0.16559765910571067,0.12035167759434451,0.11319442784296052,0.0888997274512916,0.6631931140135662,0.013310305781511045,0.13717491132557025,0.12494383487903371,0.3322101962630122,0.5615235218653093,0.6365531430573255,0.827252243989215,0.6210419352553023,0.7163642428049437,0.4003526881079805,0.5182352066592669,0.53705237085064,0.5134833055672909,0.9529990040359547,0.7256503534212461,0.5627062433748995,0.1352009014332055,0.6665435459325273,0.3458344828002442,0.538938894194995,0.2281612768587289,0.7151805125514243,0.2581279245702487,0.8586055327899078,0.236975505117073,0.28444822910804246,0.5643820361884948,0.3494994137927506,0.278261952604951,0.7228510720978415,0.5582610939319221,0.9402521623640039,0.7398705780873089,0.43039766081757436,0.458646840119469,0.5614934565273595,0.27893217984316254,0.4801093958452791,0.7171402234366004,0.03642710276822192,0.015238446111896287,0.19235734630833767,0.8269869785871917,0.6589311390993368,0.9510124295014742,0.62629859038693,0.9773197136059791,0.1442326920421917,0.8400213349631761,0.27018028770066327,0.9092000730250558,0.18524654777722938,0.4516849380772405,0.9694286960307065,0.1649217928226162,0.8469204239937627,0.8798407307666914,0.050882279684751675,0.9233452056103175,0.7064198447946093,0.27933908300534216,0.10878584998644758,0.14548986617796167,0.013920133778536847,0.009004616799809906,0.45778825984503,0.6401545310908777,0.8440559126583889,0.7465250697961712,0.8389297299332142,0.057717537789797935,0.9838986709916594,0.405243534279796,0.9540177318429445,0.20619281108292897,0.6651628406685061,0.7484816295303308,0.10816907319703273,0.7502092139588211,0.9326565572598273,0.2614999196067217,0.39268230255861336,0.22190761271735826,0.07725864155557394,0.4980795127016904,0.10653099978163472,0.6712699570798164,0.03756197021702279,0.3734306274033494,0.2761539236292597,0.8942099521131551,0.2332458496275085,0.08157065045328205,0.8360646428553399,0.9920185009937563,0.9971702112205372,0.44480217587078463,0.11499853747174993,0.8338093994089896,0.8949161324019705,0.21581099184881647,0.1494860247738783,0.7321168688653705,0.7326547808162099,0.8447008317585434,0.5318569212852025,0.5146936350054522,0.1302443451115871,0.06342002302713368,0.46632712577818747,0.3704807072728411,0.9565571125109208,0.7881971636105655,0.9719729619991385,0.26114636205715436,0.9461036907544075,0.23240957508487547,0.2526303875271053,0.15718537109317643,0.8475885856494821,0.6964075849419902,0.3155687957934311,0.8676944179196978,0.5025464835989003,0.7338156375750372,0.9469171435475362,0.363245798351042,0.6826252064509877,0.43736505772074874,0.5541922399201947,0.9645572367072661,0.8872939038811612,0.7654235138894451,0.3777070558508857,0.7276473474605143,0.5760780672590919,0.9355827341117557,0.9462028786310963,0.0073589558386963905,0.39421592321342713,0.042129338167912866,0.06395289339969568,0.46358682129792017,0.5426100242007564,0.5189104082227995,0.6722893431129644,0.3752366999498119,0.6618511006648806,0.2590918893008822,0.8297360901947112,0.7827580795739956,0.48712462701609227,0.938013672296528,0.46362710265786033,0.9035958544942254,0.4302999049597004,0.5681273785893888,0.3055594568829575,0.36987911265698514,0.9266415653764526,0.6587486633054913,0.840808164018458,0.0815106478514046,0.5606863582415452,0.6835314101764879,0.47647454243585474,0.32643654862490623,0.9656174011511325,0.43098259675366135,0.4557199530005771,0.4229173580756881,0.35545842824153817,0.43821279306821304,0.17172053659719988,0.6194723531293486,0.4526453559389363,0.7426487924722103,0.7861025776553697,0.10026046734159577,0.6864918388399652,0.14311387148907062,0.9431944173644867,0.07298455927737657,0.09492687808369538,0.33471849408465015,0.24197967952731692,0.9897683240418107,0.30404499677237407,0.721716163589162,0.751260086162096,0.6963741815887641,0.18891882485253098,0.4600854553729562,0.4343039786858005,0.1972672245649446,0.7642220578952521,0.7816278280208736,0.2867401226296198,0.3379778807591871,0.8575561471570109,0.2191085446795631,0.29923430960127595,0.04612212962311846,0.07353640744640355,0.21913956858319772,0.7998286388364604,0.5285938186694048,0.9699681053398058,0.6410849818441244,0.04322534954375756,0.9478190648286898,0.6108798889778213,0.37520119227667215,0.0264457138609141,0.7713223083340054,0.8963698613136957,0.9870243708916242,0.35387600219147297,0.21618223635772338,0.48139788806037254,0.9239949367371029,0.7175639134007742,0.20574339357008598,0.01866887895673086,0.6739178390728663,0.5385952060914735,0.8727105511181684,0.7396873013138928,0.11571261698526769,0.5182967411688335,0.2875756141734319,0.5090015428066624,0.1383193902202834,0.3022385113370637,0.36337324085953604,0.9575162781273039,0.06726029910158493,0.16476461728709357,0.24440013392747184,0.47026293484026216,0.30004462651973207,0.7905232731033305,0.41406301620883157,0.38562312381640285,0.7146048528611352,0.7225400446906985,0.4323920736844409,0.8355706383838128,0.060707223677290534,0.9879249410410981,0.6245855907292556,0.9455918918066093,0.36160397397502597,0.6859182454524856,0.6270226655107664,0.18981509624146675,0.7957240653281177,0.29719858322929726,0.4093284733114866,0.47819599338502217,0.8114246014191316,0.05508293994496327,0.5631821577191716,0.24380050915301965,0.5140748478499625,0.6943306442870705,0.2669712106258545,0.7007197171628408,0.13997970949178284,0.8461699646127433,0.8590072849423175,0.1305055088688324,0.0958527333813991,0.9363684651584578,0.7383965713513085,0.5027331227298264,0.29463707921064297,0.08130926395739024,0.10163423078760137,0.1842804247255393,0.8615543522044032,0.19623926967475613,0.5174175685212732,0.8579573102626716,0.8208256570021268,0.5226199913199583,0.3814750256421682,0.15480346195218997,0.020414396642811417,0.02036246546349263,0.12009911893707348,0.4453882173751307,0.6993940137125871,0.03504862997959579,0.4666760692271781,0.26825465027302964,0.3454523627955641,0.20370427700811455,0.45486513796323813,0.8515774790875943,0.4067610319589785,0.13821949142099366,0.2656645586226374,0.9463606322275212,0.17766701530208118,0.2801161011509432,0.7770944439292193,0.6751007565642546,0.8145087603058953,0.2579881723188211,0.5803786270414039,0.19004712855895123,0.0798904343913226,0.7760622630194427,0.21119436830999794,0.782480061180605,0.3602512499902988,0.18604197564881242,0.5552736204512565,0.24369735093957057,0.06486043052723356,0.5295487403571905,0.022950334373910142,0.0959310347682617,0.23684180213053885,0.2750778088841177,0.5072440094710461,0.34981430632011146,0.37586874002275306,0.7936111143201903,0.16840776179181216,0.016548505910765066,0.6297486436706962,0.4546297615438396,0.47763413876263394,0.15203368145435858,0.0336874098148654,0.3683294767162282,0.758043624020586,0.41724217442736267,0.6622480460814273,0.023138714210631628,0.8761239121103633,0.357479622815409,0.7423252216090198,0.5863797562320594,0.4343916429711865,0.9392986481713055,0.4081564728144914,0.6377435396537914,0.6580591837803001,0.4973178499428119,0.04582602218044807,0.5820609817886092,0.2658549479960367,0.4957571164271507,0.6758863758272707,0.407778401401078,0.8415827667790171,0.5055323472395098,0.9905902521002516,0.7612599578260427,0.8131848180320982,0.7206783592000324,0.12808242602371145,0.6428384362970838,0.15730784523413865,0.9218531446589702,0.1089167797482884,0.37637658479563363,0.23174378092750147,0.0666330206896405,0.1453094506150331,0.9204099325472195,0.7695590398771707,0.09289308958936304,0.4588426335029603,0.04931928400629937,0.1702022936192824,0.7702053788079359,0.7173247924561894,0.35457776898750337,0.16701758376516096,0.4084962802910793,0.8128232827848091,0.4199767195888684,0.5437174410329854,0.33823000861951136,0.3003766764193122,0.5882978470838927,0.7373001176621784,0.8679194551829778,0.6664408978580992,0.4691721178947772,0.36563965047663893,0.524685680842511,0.874496531320395,0.9776630908061279,0.9886197621154982,0.4063012846685824,0.909521676252583,0.10851986590026963,0.2825879378025947,0.2617068233638814,0.2909782478302315,0.4328905087745174,0.3455106851180445,0.27964478118980896,0.4194719875515587,0.7826732113676856,0.15066387521545466,0.4718943109292567,0.20765450257484042,0.46611449541826766,0.7631465435743383,0.39870928596948585,0.0460197284381243,0.3382241612525577,0.9909706213252089,0.5110954607512284,0.5114580479618807,0.6600115200135214,0.8809828401167358,0.5902394537381699,0.8363875126406716,0.05440863558914677,0.30372682619153235,0.3964039713586035,0.6742092472265396,0.9169405958328031,0.4247312268423131,0.01433903526384206,0.3639294897346591,0.5599023075362162,0.1981990360459076,0.9666620206185014,0.036250795741233466,0.4221995468977535,0.7202898531011928,0.5424855662889195,0.22924600943750073,0.2688157584987372,0.8368993155651617,0.6148752544853292,0.5440728177218536,0.17710623432602635,0.9035231384413733,0.01531324433952308,0.15157072123959658,0.8908163003290469,0.006302090297302443,0.9442533850448286,0.9780453073402128,0.08157714402588467,0.8658111365004809,0.01945911122056898,0.23621873670964588,0.11855798841080478,0.1664359286819167,0.843577231866375,0.017793411864684305,0.48270587380566266,0.9694042900827278,0.22795160355972088,0.7884461011455549,0.1313577704656964,0.5808203047095516,0.14992473842448084,0.5456726455912154,0.7743006567340147,0.014635320151318854,0.8405902101995806,0.8555749890386536,0.82043498878894,0.4136249887246787,0.05504143837829578,0.3512271617033399,0.34685064705010316,0.44700575565293266,0.6496948141347769,0.8421335224909627,0.982917436970969,0.1744315999067899,0.6698560296018818,0.6122725623215262,0.32916240807130104,0.3761217332442376,0.3992052298891807,0.7031891095318754,0.5739503711070815,0.6277458336348891,0.36432464107231366,0.3764236946620235,0.8492179521456769,0.37475944403038175,0.35240547648025355,0.9386422483350056,0.21818590069912847,0.9395692403242244,0.6384106030644054,0.6981258502459333,0.6805354643954072,0.5897036791778174,0.3267150012485732,0.6779703955723536,0.04376150847007554,0.6991965631993279,0.262025293108442,0.14368565048776683,0.6031542790206924,0.8122606201033701,0.09428709813823188,0.0674540827405159,0.11526144515220238,0.020924232910296436,0.7775819083772079,0.9518697627225906,0.760007547953337,0.6913523499837034,0.7543891329092636,0.5345910614495107,0.15682563938267058,0.9940430840545311,0.2797849571894354,0.6659296115922998,0.5196731993765848,0.5859828252735046,0.26036682714635584,0.005526273352304489,0.18743326292911466,0.7004004761637653,0.9267946505545643,0.9687005531754631,0.9547308764697519,0.7209816461662596,0.18446488013195395,0.1801667372690967,0.4457127476970728,0.015707743249154138,0.850960986316899,0.28265244702860803,0.14836736791501948,0.9688035518677819,0.6035314080026691,0.6038458497738548,0.5212237616049802,0.6030636472761178,0.6034017337418806,0.852072471839096,0.7391003247568141,0.04748551663955991,0.016972000376544227,0.3817581543449923,0.6574484405333718,0.7520689711443531,0.2736981005241331,0.7986163333425034,0.8966675634280706,0.5864655508777545,0.47294492000295885,0.5451917615638115,0.013028232838426357,0.21244155072033588,0.809748870974231,0.4376154155612363,0.48123234839833295,0.5081312200834666,0.32819498695103644,0.5815677835441476,0.16050291404608918,0.5989723805860343,0.06045936811725894,0.27556355892668727,0.11660001876879156,0.9880392994601227,0.9187373134385634,0.6438530196812001,0.5745484373935069,0.18805465608471927,0.4109263139095114,0.9990756638025914,0.6932941517992404,0.3601097462785162,0.6000111111163633,0.5517714358735556,0.14593305254840838,0.11948572743901087,0.4323009003806715,0.868492861477387,0.2769172780368965,0.9344886951331667,
0.4351938742794933,0.8560928476041645,0.8099729752197802,0.8453005599983074,0.549068039464699,0.2758032248401745,0.09714197676123293,0.3488963687904646,0.9360432179102205,0.1692466585199559,0.5450228397575327,0.6741623203251034,0.1415312086548538,0.007714581904097462,0.8834094846767501,0.647344262939776,0.7608159352331774,0.6472798039724891,0.6992007971801519,0.6961263793373194,0.6079922088149934,0.9961863432313206,0.057994311493515194,0.24963975688174533,0.6243454010781073,0.6957704794185547,0.9469783959633248,0.4910382900643012,0.7874227002572511,0.2530736336520236,0.9784696085124099,0.6649361537830044,0.1553299844446917,0.13744946937725921,0.36804625307197325,0.40455825606580853,0.24784593867685423,0.5146806798872957,0.3689056392925463,0.37645909922586696,0.5209584487768915,0.9521330038181728,0.8627060083703914,0.698199019205007,0.5243998092354291,0.5524517847658605,0.491590551871132,0.4465479181751636,0.9977885213560239,0.3548540149726914,0.2171569704558074,0.7896163553137917,0.3593598532103939,0.0952075278591139,0.5461722826988407,0.8090946204299371,0.7260840914614667,0.6466274435402121,0.48073459655589657,0.5568431161749291,0.20643722447678214,0.10869404753447232,0.09684079203883567,0.663362319699815,0.9248373697142163,0.8062398735678983,0.42729235840656155,0.772137444120992,0.8269546220888347,0.6897291738461561,0.016228248881069218,0.5562233386821429,0.1177103212481545,0.5455428311910319,0.2787628982720567,0.769140317552701,0.7200098846087484,0.32865916654520755,0.8135708484748176,0.6762677011657984,0.6513398795804397,0.7009255688485647,0.020845967198469095,0.32616838392209735,0.7900975076234393,0.5887582331936171,0.788848871833521,0.5241806609923376,0.5976212968954451,0.9774357869072098,0.6008879145915683,0.5536247821099712,0.6698237109540909,0.8228718437574479,0.33771449635207906,0.1542446801904117,0.7313225080515259,0.32519103929846394,0.217840074607079,0.5807209491416828,0.7216837983684736,0.23338572114141365,0.24860701069606594,0.205460473783994,0.3831215485117807,0.35723575787703565,0.913079202228839,0.4202883564733926,0.48971593097512234,0.4764803791659432,0.42792816864498895,0.4135833945608405,0.029554647642083487,0.5501008212064972,0.9137977067904663,0.6230834280871757,0.40004963284374717,0.812878475099119,0.6407687494884432,0.8710328344469649,0.36997743039945186,0.44154197046079924,0.361501954837705,0.30365124626902185,0.9507486510130075,0.18630403921264727,0.28834366834056824,0.14945673036731166,0.42800742114343093,0.2552151578131432,0.24588434338231613,0.4816838966421645,0.9785896175264236,0.6654862793388809,0.30342046965106906,0.03388278637835318,0.9723128953099383,0.8986576316591719,0.9496000315349751,0.01100430870704494,0.37840801422372816,0.8339404037659894,0.7538476372311561,0.4635190180079781,0.20433963909430786,0.6244094146561973,0.7569288225826077,0.48914744691740697,0.10404068776219821,0.42097155093240435,0.7269017485512729,0.17915140889702652,0.9351668615388892,0.46118053570088025,0.9617562259676949,0.4665629939180693,0.7477407645412438,0.9828991694618088,0.7387070851252866,0.3335309331860865,0.05140240608280122,0.44155508712744773,0.8969336736575322,0.662177102254777,0.7038411944803471,0.30044403735546565,0.05725136410005216,0.2572509761178835,0.9730355347296754,0.35020605333681787,0.7002847855450951,0.27906585774620873,0.6387464246379716,0.25623273918266953,0.875827390348736,0.07475906468906002,0.2785443883111358,0.5005162902684337,0.520257951568173,0.9319051708468485,0.4212935275886318,0.890630471748772,0.858545292224779,0.9642578509217701,0.4360118531776236,0.9388411324466024,0.0802936168536098,0.38879065100520216,0.7418083146832558,0.4357449762907367,0.6086512357490157,0.29862687105029284,0.9555381966943716,0.06247528873344099,0.4382301340935043,0.33856398789771425,0.9092833893587785,0.007988117459650335,0.9704923867843306,0.6432010630924513,0.6623154401917155,0.9027283606951009,0.7416110569228654,0.8887556034375781,0.9426694674875097,0.5751324069218683,0.7908935530223513,0.24575753659266852,0.11196186149852749,0.7270438983742195,0.27805150653934807,0.13758270716553567,0.552711670015684,0.6417473669698504,0.08226523954860077,0.1944654764561098,0.949519768080009,0.8908190423165818,0.44716249160639754,0.38446821429440514,0.4711397882459927,0.6487935604628078,0.46927250332446657,0.7701916888622106,0.6017119715848106,0.03369858338829179,0.96417470390866,0.4146085693686731,0.40745125796866477,0.5891006551563622,0.6981922668705965,0.8712201452394158,0.5224943481324373,0.8291945880932152,0.16238394874219342,0.11204025510124904,0.5581921635401731,0.36037073640299766,0.3474601523843164,0.3670393101337367,0.5549381473956447,0.08110824610847589,0.45608391727241226,0.32813059778211107,0.21588545340469978,0.15223300276257323,0.045953758493221364,0.3165398096171824,0.897582260443866,0.46395171800727397,0.3084144880144958,0.141445540466,0.5650809240901404,0.4688272005799391,0.8134098112229922,0.6125490353259235,0.6685943378125899,0.897605327654095,0.2850810687631695,0.08532600877807361,0.7475364056498761,0.7445594184906636,0.07217934216113808,0.7402198168714792,0.2467814458534815,0.6938793552041639,0.29933728063365717,0.30612363990899594,0.17357915916096567,0.1011644282767995,0.5786585567019656,0.348609138377326,0.8561367975221896,0.4993147436234969,0.32388638396623415,0.24212946145241232,0.9485671790343047,0.3494189098852333,0.18351734133132636,0.6558044457727804,0.15190800925236803,0.3421166728361724,0.6636913708565109,0.49996663112291606,0.19781212919212143,0.6967659059517181,0.566985850238601,0.9526724187547696,0.28989231477692845,0.5557016028153431,0.4977154142044652,0.7794137874684938,0.7566112708343439,0.22676343240965435,0.22442761437753223,0.6465070425657032,0.3889910841174373,0.7733815194738082,0.09526887941189766,0.3257341087948299,0.721055119343328,0.9268730827538616,0.7692299052710805,0.7378712054856639,0.8228656857131724,0.4072530230642427,0.704899001562578,0.9157483639133314,0.11709797309759329,0.9555389374063035,0.5101133613988357,0.8465810418901274,0.8721410124429089,0.9284639136933153,0.3609670692184286,0.11455601265820925,0.6107184364371439,0.8074646780091427,0.03730270283973225,0.12309129982070621,0.5094910625758102,0.6675569623214924,0.2858684863846159,0.12474633642271382,0.8395971592753801,0.7425514149922843,0.04012100263730056,0.343713961721432,0.3611111776412521,0.6072293122015014,0.5025930415236044,0.014005928197589279,0.6100334822426056,0.5027200546004609,0.01532965012622245,0.35120332514774155,0.8561458330425292,0.6537734510422974,0.6336150916059553,0.7173385863208507,0.9620188559365673,0.539163006451142,0.06909513589126604,0.46413443736637006,0.046498750236786845,0.9048306689407998,0.6419287525343018,0.026061254818182444,0.7318348066401896,0.8820724491515916,0.15535762189971924,0.5498577550738993,0.7385948994184949,0.9448846182683973,0.9915721740134957,0.6565318493113353,0.23085283396512557,0.5969984491807038,0.4568370420214406,0.1357267416231156,0.06214600241938206,0.35126434144373797,0.5713202812464173,0.4907900982672626,0.09682207975656287,0.1476401146502374,0.07778500131218169,0.8975268334266517,0.6518080010754194,0.34836451214009645,0.7972188467165456,0.4873475851558464,0.1793013788088944,0.24210654584682378,0.36390600630847025,0.4073998808266749,0.4533581273469056,0.07521743169652118,0.5348530937183997,0.050084388555330595,0.7605092260869761,0.41492089866767445,0.5928914425466704,0.7489606340536983,0.4140152184266216,0.9148486740588463,0.549114220802038,0.47490345688627944,0.9697459437026857,0.6987450032502165,0.09784145751083095,0.9709674104520908,0.2609543920539469,0.053450023931493784,0.31026938769121515,0.9762163291426942,0.35834628644536226,0.21478995591374717,0.1401866746825391,0.18794219929341782,0.8865083192899449,0.9906141010472163,0.6041818254884859,0.6175068117042627,0.730161321674965,0.7961168099395172,0.3766290952175696,0.06859361453240786,0.4146200171180082,0.15136156981237203,0.8298127945464574,0.9310192050674301,0.9680116488879257,0.9988902706011757,0.6956369131114252,0.41644806723030536,0.39780044482297305,0.05434111141457343,0.6721798243400656,0.6772526916238668,0.1944040802164837,0.9153747882738479,0.7339323377307313,0.4475306089416471,0.9418690691756603,0.7995234431419374,0.8131439082456923,0.9003668046884324,0.862838410404209,0.08484041162382572,0.8517451208966293,0.6896022657607777,0.430492948061561,0.9749535292206626,0.48262089823031384,0.9723160394470443,0.4616180123478576,0.32509377819010987,0.31833717131944395,0.4202665104326371,0.3171555064501308,0.7086025186686449,0.0959360470788494,0.27366801466224155,0.413690587006169,0.9925479559933708,0.87337230789105,0.3019547804098366,0.036243518205472114,0.6936446723294929,0.155231020586314,0.8807839207721588,0.8027568303249674,0.16497629827291893,0.41244197374472924,0.045498491770963434,0.5055405608553868,0.09441359364775614,0.05095872601189433,0.612457886117431,0.4460799040731026,0.7370291799478458,0.2253522753132906,0.21268033623364624,0.759561948044907,0.744024785685301,0.7930258333081202,0.7580903533081521,0.004066406868293515,0.3122481560895415,0.36049620019519635,0.28049954214667405,0.7372202545401162,0.42011576541149287,0.8370542216922922,0.04733764706994237,0.771125466703999,0.4078279175249466,0.3583803863656786,0.5536592813170608,0.475419555432148,0.2739944324040071,0.9109006858214658,0.7768898514541283,0.5435476840869053,0.20866555677524035,0.6739417190586628,0.17907316452355726,0.9653214387729965,0.6021049387256896,0.6478756462278922,0.7030579561824435,0.8273026755453436,0.18096461082152981,0.5431112869702952,0.4421116553040242,0.0774772412894642,0.3779165731369917,0.9503323903569851,0.8529525481983061,0.01670851852155386,0.4730308607457392,0.2441083027310358,0.4171606630914826,0.7869227986024555,0.6520352392550094,0.2404475268002929,0.4832408095402225,0.26840869598929196,0.9042505917685318,0.4462342559276171,0.4510897944310265,0.03723380770690998,0.40784250845710135,0.9835188028166136,0.46978381428668925,0.7079013657920472,0.33185785404592405,0.7719170729441501,0.4039100797530889,0.8751762191144876,0.7793917612293519,0.981065518892464,0.6370936447457224,0.8190470335757749,0.7166310160091413,0.3868610575392315,0.45024717841632145,0.43356726381639565,0.0925630936894597,0.2700494469199958,0.7399585792907314,0.6470116328977392,0.18864580789792607,0.8861663494843773,0.6442403554261201,0.10099476862607315,0.7538978066985802,0.6714400764685905,0.3220604901890961,0.07238788499083415,0.9002302801155391,0.9359459136392518,0.290930392674038,0.16597053060859257,0.8972925262543449,0.5067295928056282,0.9054976882315949,0.7174591439961597,0.0977723077963002,0.5424745163457622,0.24401646039397729,0.9309573489788185,0.4281564077965173,0.7023458654077613,0.6239563458358193,0.25732087337390597,0.15699933908962804,0.460900891049406,0.19175788331683652,0.48459947174641416,0.3541336363810066,0.19005018548000718,0.7740517335268199,0.29809894606911225,0.4900928820786178,0.7785839422882699,0.19608563750771857,0.35442549272156143,0.2885314550113064,0.23587446971530768,0.28871740029182114,0.6305314104732823,0.8011611020689706,0.9661860061574699,0.67268479360714,0.9232579464040229,0.5904960676095288,0.14300615739816636,0.2783598826142093,0.7002398531061237,0.7176862243583167,0.5320533917634129,0.32382900049322183,0.08831784859062863,0.15346358051746856,0.44041514544949445,0.00464320919248562,0.3458861552703165,0.5013169596809031,0.35513831810949237,0.6271876330924427,0.8351360397610995,0.8180572436166942,0.1942230054348748,0.1725904359053818,0.06495673411607594,0.4485845350604941,0.9686068671076269,0.9918784497504026,0.7284468273055204,0.2274142907289871,0.7890762767626383,0.25833630747198555,0.5031062762087051,0.8492533285059136,0.9352821256336017,0.9071500574669443,0.218066411688552,0.5299089338123735,0.317868822235845,0.8215410955481535,0.4544518988895162,0.7197763268333489,0.8151152113794671,0.04759816608909195,0.6649328788463833,0.8923170818079085,0.9740895570928513,0.8382500334921562,0.7582162728620541,0.1724983661026821,0.8755860898049058,0.22121032658632822,0.9594597446031717,0.39307919920935297,0.23254066534843476,0.3787604416321464,0.26514106213188493,0.005749350360458871,0.6214940311242394,0.05161292114472882,0.5830136040603296,0.2846477007377217,0.643884546839785,0.2883316758377221,0.13558245453915174,0.9721964901501127,0.4122349252755796,0.4522937492077933,0.11967767426797549,0.8306792117317214,0.852213975868595,0.9685145709874419,0.5051142872623671,0.9134120661955475,0.7789753630697753,0.8016374315560146,0.3176803239694368,0.2121239675267359,0.18492496658145818,0.8211691970364501,0.5440602865335147,0.520825729590699,0.6756236754223827,0.6766596192658273,0.9144909017656968,0.1541178390700345,0.7969132319108435,0.33492640180886557,0.26714989724197324,0.5524307917445518,0.36425661816477606,0.513786478257707,0.8151670834109018,0.11037485110655287,0.13114723733265243,0.888055829295676,0.7225910394648145,0.06100735755492814,0.5022020514113127,0.7667821025816551,0.2963309412517021,0.5310658383653026,0.5931473710480175,0.45848866647926745,0.901761119354658,0.9052236972743988,0.9210767421874758,0.07049456360344697,0.2256680234496915,0.259659540291834,0.33528702447714187,0.7573205556419617,0.057628328812619256,0.5667482051185478,0.8715454319047763,0.6300029858849315,0.8477672921714856,0.5179830750738594,0.6017642214830446,0.32449449523051954,0.5562094561856766,0.029612535116832484,0.7950097623304271,0.1863784504708853,0.7252525428559602,0.5395970460387672,0.30991921740174566,0.48794469166851406,0.08969775622114762,0.9465214012322483,0.44460135405751544,0.5165005615511467,0.32285774301346104,0.707172054007879,0.6450457169354922,0.5340092174427252,0.7396683477557053,0.548151108259806,0.42764417129545906,0.3774295863343279,0.6821505421658721,0.5212875846880556,0.10379379088286955,0.7714915501620722,0.9146567678360759,0.2842690664090711,0.3622874845112424,0.7325930501126242,0.750075943945018,0.6058023988381238,0.26131262428521584,0.8022113748962056,0.7609185523632229,0.224233921153704,0.7786800363584,0.8547232125706945,0.8203854341812095,0.8274109714347234,0.10133783006978814,0.1646604445601898,0.6569542309427169,0.5129189094631565,0.9194676235262226,0.17492314858991365,0.3082708752032225,0.6519422399185235,0.28818147205784506,0.23413204607028137,0.9526103885022748,0.6256857136502428,0.4117670896394987,0.5485210723671283,0.07673661450014779,0.07306208968433359,0.1295681103888886,0.467097867644479,0.7403466252744274,0.7791018132241339,0.9509153267571548,0.9166934658509965,0.6264120727640613,0.029167298171707046,0.4307556686494427,0.09207788891827107,0.9177638431200794,0.168855026118937,0.09115435922756954,0.6769987895683016,0.242391029897855,0.5501732082682674,0.04679619100745036,0.46859130192670617,0.9423009002063155,0.8378739813124051,0.3094347265523417,0.034385089820899384,0.0066954747722561825,0.724967447847662,0.6769591258087262,0.9993082568981057,0.6722988225054198,0.5969776968986389,0.19235450576819668,0.9914459967546286,0.5268948377765904,0.9820167208772234,0.10706647960775217,0.6448877218488208,0.08487569790219285,0.13036646944732422,0.7526030186556206,0.6793803442932911,0.29396032915170456,0.6750745891786256,0.08453760824376666,0.1619116071997072,0.6143043687816778,0.6732678944707488,0.11062999373336069,0.9578268176538938,0.34137651435956695,0.5419379559181472,0.606967838670731,0.3381663355026294,0.6643568576827537,0.07230842797160708,0.4521176269572026,0.12138457554563142,0.6069121555527678,0.4470281321878047,0.8653920348802739,0.6493225377679918,0.00870882649004412,0.6937873799785882,0.7157224000165718,0.9647084901706555,0.5791886530305904,0.27900495283174664,0.9204471312808866,0.3164132184223051,0.6537659888534172,0.10557869468808434,0.6207281139560755,0.06517635912804898,0.2917129205240784,0.20912535680231603,0.9074837307077084,0.49421579271779614,0.7126429571533561,0.8815259226681507,0.02261870267407662,0.2922247230914826,0.7392467788377558,0.8690691075855853,0.4424184033938353,0.5338185287794395,0.913933547531821,0.33720698525271464,0.29986109913751935,0.4628919972850558,0.24799293359820862,0.7199513005318231,0.15688685576347183,0.6662061359197491,0.47171444122172657,0.7775940873992456,0.15809506429569264,0.9684213906134895,0.6838560569797132,0.9233580195654969,0.7730399557810124,0.042050995569760996,0.19216171626774492,0.36385741124283677,0.7976052464942754,0.8536052205149842,0.629386065351646,0.31770464301291323,0.35135308674487375,0.1890436247451608,0.034081294965888964,0.11220786823845175,0.5278181854561382,0.5146889344810681,0.9771262457416042,0.353663738121754,0.3645463194442162,0.9720852714625783,0.1262080003778091,0.407297138492308,0.2844327003233914,0.5852925071981333,0.09077120144204198,0.07373124600907555,0.08402395397447504,0.18259755905163522,0.30244650142825846,0.7255951395523289,0.246304380392957,0.5558060760197401,0.8982769511775954,0.08845981428029204,0.5962209470450321,0.03476642165392729,0.8874663727104511,0.34151943751458624,0.07904933437808248,0.3533724927660393,0.8100525786684272,0.5354041951488402,0.5167153393322091,0.2267845432503367,0.028057213887840993,0.5402225795457921,0.8504646672770664,0.04219398492810911,0.3222758894928148,0.7081692689940424,0.40061381053906264,0.988437483510361,0.73497398007951,0.15503543976772094,0.9932592011471115,0.4340808105928944,0.09484852125293175,0.6374645154741436,0.983987378204965,0.8968342875126094,0.7354824114632715,0.707622275222875,0.1471513505022093,0.8681084470596924,0.26263259806339045,0.6529088602495251,0.9986137280001085,0.5645103067782994,0.29913070997114344,0.10896582789729647,0.8922130759790035,0.7936299610969588,0.1016444829555132,0.3826100539533164,0.13930375252251292,0.036863499072251726,0.4250936487300888,0.9266879565633027,0.2531403945610544,0.7177812468496695,0.7078552780438436,0.3447780420465095,0.6524287865647359,0.30907449268372833,0.5171545605209319,0.050201683166293476,0.7145020940190414,0.32847902901169657,0.8396427759041173,0.794831425724348,0.4935278027171802,0.614732805323814,0.858531511058799,0.5646261446455361,0.8213653535557894,0.1650222541093237,0.47969640707241223,0.1515973307771703,0.00708023774370603,0.2242022348982894,0.20098435497151412,0.4822315170066923,0.918907786833596,0.03195275593846825,0.14915910211672878,0.45321559583486926,0.013558766950419798,0.7821123519746949,0.18086371794897926,0.9649209009747076,0.3568641372359036,0.3578242928066513,0.5721745845738078,0.2748988506768957,0.059608089041480405,0.03991937134957724,0.09012327493279804,0.5679447943093863,0.2319905839375036,0.8187897965793722,0.197547540041768,0.8002184214063103,0.6097507473024489,0.6761438401289903,0.3874038426735824,0.7281600264383129,0.3215582093614471,0.47270442902410004,0.2587236678240117,0.3194292791824366,0.49365948714105834,0.1493987132983846,0.5979528473193116,0.2811826038405393,0.737890082649685,0.18690254709256648,0.09890979151898327,0.8948150245321546,0.9439187243999759,0.7235355015481201,0.7152408783117289,0.1291163701817064,0.8654860195347504,0.06946229377546165,0.741098969982883,0.0814266781791303,0.9710587298591897,0.03139207172590652,0.1148022574921288,0.5356148348152348,0.9999577199489523,0.9479757608295025,0.6767913682751657,0.3430017759604047,0.19784251801243335,0.8160760547339567,0.4146037880783793,0.387620964199209,0.45689028746321625,0.3178285749312999,0.9629872376633142,0.7883009537544906,0.151138845842812,0.24781884618901318,0.4464572143909076,0.03870773913840109,0.20560524320053641,0.6984048729914173,0.4847265348276153,0.8262806419906618,0.279455597431708,0.2973503423575897,0.6384322353314785,0.4758534237141617,0.5256832433989277,0.9622000806254078,0.05064911318841259,0.8891817045899759,0.9086065962876272,0.3794982171046398,0.43607871371028795,0.6334591130516088,0.6480376268082406,0.5125358772328434,0.6976482536373846,0.7939602781871861,0.21964983868997512,0.5566820068264449,0.46185139282424803,0.6455825075368332,0.33002698673017816,0.26092323622705027,0.9774845667020555,0.3358846382876297,0.14562252494664574,0.6913808813117656,0.3106513677737571,0.25206555347901916,0.49563812758220616,0.5914329746248584,0.3459424608563977,0.7139957044905004,0.5400744137334799,0.31599800147882884,0.8698506131305641,0.2863436599992295,0.3728735146525297,0.8796926281271154,1.8277335596450506e-05,0.48816030249197717,0.0024832825347924636,0.5929206508021841,0.49786679472480755,0.4901720766476021,0.8945951364881659,0.0537354807873045,0.4261592724678953,0.8771868171081786,0.5217444523772076,0.001839433283989722,0.45702827959621517,0.03182786243666402,0.4993505790667967,0.9175663104597276,0.22698864557595677,0.27557569652182023,0.5403773207398723,0.25862375437191176,0.17414729750743196,0.395088282369908,0.03017350849457623,0.2916116428287452,0.1789730005925394,0.4595177253807454,0.445540677412831,0.8580588542051006,0.05317137641579861,0.6468976727205193,0.9780112425804875,0.18104975593138972,0.3078682466669842,0.7792011166409352,0.5384509939160755,0.36754238966762864,0.8475527778578722,0.6563567734073155,0.1021304979125427,0.6910957673281481,0.5234912011937571,0.10526248629876522,0.07266620052227579,0.7316230184547289,0.302621389156971,0.7859570342386871,0.006024841464919328,0.45528763766269553,0.6484478696371567,0.66430228034249,0.25958554539066003,0.8782793273629979,0.4214186997998698,0.06529600926360524,0.8226468956655629,0.226503221901021,0.3514613531313526,0.10887501561046997,0.02412550323912399,0.24154728467552977,0.3260590220068985,0.9225993142297331,0.3970753889815709,0.10366581596786095,0.46882295981519895,0.6521923260104046,0.8069292257394707,0.08499726075590752,0.8623295403556511,0.613153187253122,0.5881076473696074,0.5158749645035304,0.19209984224076693,0.6801300679719435,0.9305702947457355,0.5018121648392072,0.4887200165128732,0.43581040610441146,0.904872118065017,0.07117132216601918,0.5705775759581888,0.7722320400310106,0.6090315046019519,0.6537100498277606,0.05191106528922296,0.9266700513362942,0.0764234150601123,0.3601468433803623,0.7957310292310099,0.9332084216926796,0.47790674910003506,0.6053463924863524,0.47412151105021305,0.1064216632563112,0.3892111837776413,0.7291700363849402,0.5531115345250248,0.9662200048882438,0.4026654286796525,0.9741417711915177,0.4635174943437722,0.9540382675427245,0.5868708071252726,0.7685375358548868,0.21291140987068613,0.7535963645385633,0.6248079095926594,0.3388728645240118,0.14094734717961233,0.896897274570561,0.29650415993905266,0.6390050525254288,0.7441342547110028,0.23642784015407547,0.6726512961168022,0.2138466976403084,0.5410634018727996,0.23577181614367715,0.6563063776348054,0.058950559348395215,0.22180924271101043,0.25217308785964476,0.22977731982712157,0.3017815655123868,0.34201070044137594,0.028711323662884647,0.8254507434397423,0.5690798302539759,0.5750385352935194,0.6767914712588622,0.3515419829459484,0.8092330533177973,0.2028621788021635,0.9551109699138901,0.8309717509201286,0.03457099059716329,0.15155971083942799,0.6742633546167035,0.782393407228657,0.10465819269360555,0.7596035497151225,0.5325517869278203,0.43472687987417213,0.29326648377729614,0.6327044731713083,0.5884336907940116,0.15740528611770865,0.9439048104606662,0.6595275621128524,0.2919392556722563,0.7440540822259364,0.18660619419033098,0.3052019851102812,0.5283863359021184,0.49009149769568694,0.29499138763809685,0.8066341716170491,0.15759503526064278,0.052176640776754546,0.6860648205871233,0.7532461929625076,0.15726207776046908,0.20173678401243067,0.6140793677543923,0.6764390182657469,0.14363325115582692,0.17128072536187022,0.025248513002277928,0.8676313423901452,0.14690308177859224,0.7969306314594917,0.9103238282609101,0.8575875932883529,0.44177910344311966,0.7495268778731556,0.646088195849718,0.016755645844356182,0.7916756294045111,0.71665684524512,0.9679104114680331,0.3143058242211195,0.34699170403016366,0.07116642798256467,0.5343126172994861,0.2024011247207982,0.9054083730551392,0.4162849242270752,0.40973236682192604,0.5131742598758372,0.6067445777686219,0.41059316582641003,0.17075684253649237,0.2862647780156756,0.06753456812359493,0.9829844446084379,0.03157103866862554,0.29989182996166186,0.1006142650534474,0.41619531464317816,0.622424054505797,0.4844310092868108,0.18087790160459405,0.596958845258273,0.8923762205893844,0.45491394660529794,0.7609719498197156,0.622692729593116,0.10222128888725046,0.1451446228888965,0.6552842870877398,0.849921592380946,0.11201787629287174,0.795808227878901,0.31116623908773977,0.9586445409981109,0.24757183915916825,0.7190732134131664,0.6975882350733783,0.13997171339544368,0.6569257550771023,0.2940760211964696,0.3847431393790246,0.7042474398288756,0.31865533138443924,0.9013826860156691,0.6360326231991892,0.3032752438996741,0.1313976094611513,0.8184438465704299,0.7068353734231828,0.42441132069790066,0.6482927504392085,0.2757563256592057,0.3645054715504643,0.9003302030253885,0.406553338027832,0.6580292930921526,0.2990665384040775,0.1031947054136233,0.35557444274451266,0.1893257396199215,0.3032427201913943,0.5182612807751268,0.00969353053152855,0.7018713403304436,0.22549205346294754,0.1981514017243825,0.2976436880212249,0.8410166052292269,0.3237091487272664,0.7130318455736527,0.17436376041206936,0.40574376212256025,0.8993206636910541,0.33338856016062335,0.4427974104127018,0.07176046096998623,0.048799310523230166,0.9764645860714792,0.16835543162386957,0.040551593690915544,0.4286649884333781,0.41469938223997616,0.4013793174595762,0.7345752663160282,0.5663074034196335,0.8190369850211104,0.3813898312428531,0.5295087601069921,0.267988681841863,0.13789776795967112,0.10695397973005094,0.24147184023416046,0.33903760357597557,0.8987068663010049,0.17235700239238683,0.1949900894722737,0.802151967163735,0.8881207579942059,0.9627734782094723,0.036117551540943094,0.33204212301262637,0.01863799451753323,0.5234198574443917,0.41453359492040975,0.42152537009221325,0.2950062118936734,0.22343889675121842,0.9094194529847996,0.5585098815144409,0.808146206230424,0.7284404334060772,0.2659545218149981,0.5196994373399867,0.23297772174967368,0.1488796297047985,0.13387726238874376,0.5336451209508123,0.3570042068574907,0.4682940804811745,0.26835060968498403,0.9260780638984903,0.37868427214459033,0.3012224018129983,0.8680328446918167,0.16099191684168734,0.5880726144638874,0.16302786693557603,0.6065233725702828,0.8423001455271413,0.8765554860861373,0.2476418914781937,0.0378287494909707,0.7951557345297954,0.012459914690679308,0.48353389394206747,0.4640344763177401,0.17595182851322788,0.8887305296568758,0.7867266846669755,0.4944144218101928,0.9185176404195409,0.6407216982753474,0.5478591657821594,0.016873604267156228,0.09801261921709159,0.3912872467799019,0.7132988099786994,0.17211547123364268,0.6718052894826074,0.4892783287817122,0.3052392372993329,0.5465380746835384,0.15447531070637632,0.3463019740218486,0.8785863387201662,0.8768095718083189,0.1744428401737813,0.13887808645667765,0.9491528190454702,0.765126749403611,0.33078040548098,0.32403518656949637,0.029772186328780093,0.9175222068096985,0.2076342303241504,0.014999750431363146,0.7740206616514773,0.4376997202903987,0.8913852857468101,0.3867731754199253,0.08459377860137296,0.704227751966678,0.6798591824240532,0.1562198347528646,0.5760257871280613,0.2494796727624531,0.2245726068877455,0.20622105492940335,0.8205119935839273,0.016947220313840994,0.5337684911044961,0.34261162856916105,0.32437547747081963,0.3304272367932105,0.35455815566018956,0.25257754174066505,0.7566975229999636,0.8331152066813275,0.7561216000181263,0.036023240221014774,0.6737467755351755,0.2700213784822897,0.6830172438993656,0.5132474833964482,0.48914417239167884,0.21708792768889063,0.5113991031008367,0.9034516599894342,0.5907802606776553,0.5445144735550421,0.03910542172455056,0.40440824236159745,0.5354758521197195,0.11468146492816778,0.20556490102780278,0.5915969924923434,0.0403490360897758,0.6808570649292317,0.461621462353911,0.434928818141073,0.2703187930665041,0.7581561181921066,0.40087728215439533,0.6643514059933192,0.24962697100780218,0.8075771579474393,0.6970386924069889,0.8569868297731387,0.9590890365641004,0.31669983644861965,0.7460207643669855,0.22794255207862346,0.3510890643616318,0.8417222400552767,0.975180842010874,0.6568257248964327,0.5279792631017466,0.06105959229760938,0.7672953230162516,0.8578861752042354,0.14409680509616685,0.45375057894130655,0.9175337835937988,0.6112645603857013,0.2701698855424278,0.45687849743958564,0.3694584181278151,0.7658680857765603,0.7454549396385194,0.15293604196559485,0.7083924279186032,0.5961891357669317,0.5004901752064478,0.45158011749805427,0.17975016936177046,0.8493497180552829,0.6607474711549611,0.8862206747507715,0.8775148176373834,0.31389335897145376,0.7013495304217449,0.2046700846016103,0.4748246249524529,0.21900719132195912,0.28434195833328,0.7728691143337485,0.28351450110359655,0.0810145289450972,0.3751954508561569,0.31173787291671995,0.24701268844799174,0.8651331991587021,0.9076633868044083,0.16738336373940244,0.637732541893103,0.050792204920609985,0.5114540545201868,0.4791880110559954,0.7918569884170317,0.5537735475744159,0.20649490479830257,
